0.000000 1.160414 3
0.005000 1.023252 0
0.010000 0.684815 0
0.015000 0.278978 0
0.020000 -0.070785 0
0.025000 -0.298691 0
0.030000 -0.392640 4
0.035000 -0.375771 0
0.040000 -0.292154 0
0.045000 -0.189604 0
0.050000 -0.100874 0
0.055000 -0.036169 0
0.060000 0.009778 0
0.065000 0.046216 0
0.070000 0.079711 0
0.075000 0.113187 0
0.080000 0.147289 0
0.085000 0.181650 0
0.090000 0.215532 0
0.095000 0.248055 0
0.100000 0.278289 0
0.105000 0.305307 0
0.110000 0.328232 0
0.115000 0.346284 0
0.120000 0.358824 0
0.125000 0.365390 0
0.130000 0.365725 5
0.135000 0.359792 0
0.140000 0.347780 0
0.145000 0.330090 0
0.150000 0.307314 0
0.155000 0.280199 0
0.160000 0.249612 0
0.165000 0.216486 0
0.170000 0.181778 0
0.175000 0.146423 0
0.180000 0.111291 0
0.185000 0.077157 0
0.190000 0.044674 0
0.195000 0.014363 0
0.200000 -0.013400 0
0.205000 -0.038373 0
0.210000 -0.060446 0
0.215000 -0.079616 0
0.220000 -0.095978 0
0.225000 -0.109697 0
0.230000 -0.120989 0
0.235000 -0.130105 0
0.240000 -0.137309 0
0.245000 -0.142867 0
0.250000 -0.147033 0
0.255000 -0.150044 0
0.260000 -0.151662 0
0.265000 -0.150627 0
0.270000 -0.149596 0
0.275000 -0.148570 0
0.280000 -0.147547 0
0.285000 -0.146526 0
0.290000 -0.145504 0
0.295000 -0.144473 0
0.300000 -0.143420 0
0.305000 -0.142323 0
0.310000 -0.141142 0
0.315000 -0.139812 0
0.320000 -0.138227 0
0.325000 -0.136230 0
0.330000 -0.133587 0
0.335000 -0.129979 0
0.340000 -0.124980 0
0.345000 -0.118069 0
0.350000 -0.108639 0
0.355000 -0.096054 0
0.360000 -0.079720 0
0.365000 -0.059194 0
0.370000 -0.034315 0
0.375000 -0.005326 0
0.380000 0.027022 0
0.385000 0.061422 0
0.390000 0.096053 0
0.395000 0.128700 0
0.400000 0.156984 0
0.405000 0.178635 0
0.410000 0.191796 0
0.415000 0.195286 1
0.420000 0.188777 0
0.425000 0.172845 0
0.430000 0.148885 0
0.435000 0.118907 0
0.440000 0.085235 0
0.445000 0.050094 0
0.450000 0.015001 0
0.455000 -0.020177 0
0.460000 -0.058298 0
0.465000 -0.104781 0
0.470000 -0.163920 0
0.475000 -0.231266 0
0.480000 -0.286980 0
0.485000 -0.297196 2
0.490000 -0.223798 0
0.495000 -0.036828 0
0.500000 0.269153 0
0.505000 0.649570 0
0.510000 0.994606 0
0.515000 1.165151 3
0.520000 1.078790 0
0.525000 0.770988 0
0.530000 0.367306 0
0.535000 -0.001107 0
0.540000 -0.256081 0
0.545000 -0.376254 0
0.550000 -0.378852 4
0.555000 -0.304822 0
0.560000 -0.202806 0
0.565000 -0.109733 0
0.570000 -0.040219 0
0.575000 0.008797 0
0.580000 0.046497 0
0.585000 0.080221 0
0.590000 0.113559 0
0.595000 0.147502 0
0.600000 0.181825 0
0.605000 0.215842 0
0.610000 0.248692 0
0.615000 0.279453 0
0.620000 0.307194 0
0.625000 0.331026 0
0.630000 0.350144 0
0.635000 0.363876 0
0.640000 0.371722 0
0.645000 0.373378 5
0.650000 0.368760 0
0.655000 0.358007 0
0.660000 0.341476 0
0.665000 0.319718 0
0.670000 0.293450 0
0.675000 0.263514 0
0.680000 0.230832 0
0.685000 0.196358 0
0.690000 0.161035 0
0.695000 0.125748 0
0.700000 0.091296 0
0.705000 0.058361 0
0.710000 0.027491 0
0.715000 -0.000905 0
0.720000 -0.026556 0
0.725000 -0.049322 0
0.730000 -0.069180 0
0.735000 -0.086202 0
0.740000 -0.100539 0
0.745000 -0.112399 0
0.750000 -0.122023 0
0.755000 -0.129676 0
0.760000 -0.135622 0
0.765000 -0.140120 0
0.770000 -0.143410 0
0.775000 -0.145231 0
0.780000 -0.144228 0
0.785000 -0.143229 0
0.790000 -0.142235 0
0.795000 -0.141244 0
0.800000 -0.140256 0
0.805000 -0.139267 0
0.810000 -0.138271 0
0.815000 -0.137257 0
0.820000 -0.136206 0
0.825000 -0.135081 0
0.830000 -0.133827 0
0.835000 -0.132347 0
0.840000 -0.130500 0
0.845000 -0.128071 0
0.850000 -0.124764 0
0.855000 -0.120181 0
0.860000 -0.113823 0
0.865000 -0.105102 0
0.870000 -0.093383 0
0.875000 -0.078055 0
0.880000 -0.058626 0
0.885000 -0.034854 0
0.890000 -0.006870 0
0.895000 0.024709 0
0.900000 0.058718 0
0.905000 0.093457 0
0.910000 0.126796 0
0.915000 0.156375 0
0.920000 0.179872 0
0.925000 0.195301 0
0.930000 0.201290 1
0.935000 0.197284 0
0.940000 0.183630 0
0.945000 0.161528 0
0.950000 0.132854 0
0.955000 0.099880 0
0.960000 0.064903 0
0.965000 0.029695 0
0.970000 -0.005338 0
0.975000 -0.042273 0
0.980000 -0.086028 0
0.985000 -0.141800 0
0.990000 -0.208253 0
0.995000 -0.269894 0
1.000000 -0.295893 2
1.005000 -0.248128 0
1.010000 -0.093239 0
1.015000 0.182850 0
1.020000 0.551537 0
1.025000 0.919728 0
1.030000 1.149117 3
1.035000 1.133579 0
1.040000 0.875591 0
1.045000 0.483620 0
1.050000 0.095130 0
1.055000 -0.195124 0
1.060000 -0.351961 0
1.065000 -0.383693 4
1.070000 -0.326005 0
1.075000 -0.227260 0
1.080000 -0.129249 0
1.085000 -0.052904 0
1.090000 0.000992 0
1.095000 0.040965 0
1.100000 0.075277 0
1.105000 0.108517 0
1.110000 0.142254 0
1.115000 0.176504 0
1.120000 0.210669 0
1.125000 0.243927 0
1.130000 0.275369 0
1.135000 0.304063 0
1.140000 0.329104 0
1.145000 0.349662 0
1.150000 0.365021 0
1.155000 0.374629 0
1.160000 0.378121 5
1.165000 0.375348 0
1.170000 0.366383 0
1.175000 0.351518 0
1.180000 0.331246 0
1.185000 0.306239 0
1.190000 0.277301 0
1.195000 0.245335 0
1.200000 0.211288 0
1.205000 0.176107 0
1.210000 0.140699 0
1.215000 0.105889 0
1.220000 0.072397 0
1.225000 0.040812 0
1.230000 0.011586 0
1.235000 -0.014967 0
1.240000 -0.038670 0
1.245000 -0.059464 0
1.250000 -0.077392 0
1.255000 -0.092583 0
1.260000 -0.105229 0
1.265000 -0.115561 0
1.270000 -0.123838 0
1.275000 -0.130324 0
1.280000 -0.135282 0
1.285000 -0.138958 0
1.290000 -0.141577 0
1.295000 -0.141114 0
1.300000 -0.140131 0
1.305000 -0.139153 0
1.310000 -0.138178 0
1.315000 -0.137206 0
1.320000 -0.136235 0
1.325000 -0.135259 0
1.330000 -0.134269 0
1.335000 -0.133250 0
1.340000 -0.132172 0
1.345000 -0.130986 0
1.350000 -0.129613 0
1.355000 -0.127928 0
1.360000 -0.125743 0
1.365000 -0.122794 0
1.370000 -0.118718 0
1.375000 -0.113053 0
1.380000 -0.105238 0
1.385000 -0.094652 0
1.390000 -0.080665 0
1.395000 -0.062732 0
1.400000 -0.040509 0
1.405000 -0.013983 0
1.410000 0.016413 0
1.415000 0.049711 0
1.420000 0.084399 0
1.425000 0.118486 0
1.430000 0.149671 0
1.435000 0.175590 0
1.440000 0.194107 0
1.445000 0.203603 1
1.450000 0.203214 0
1.455000 0.192959 0
1.460000 0.173737 0
1.465000 0.147203 0
1.470000 0.115518 0
1.475000 0.081014 0
1.480000 0.045733 0
1.485000 0.010707 0
1.490000 -0.025098 0
1.495000 -0.065625 0
1.500000 -0.116534 0
1.505000 -0.179924 0
1.510000 -0.246275 0
1.515000 -0.290084 2
1.520000 -0.274713 0
1.525000 -0.163614 0
1.530000 0.066729 0
1.535000 0.407301 0
1.540000 0.790738 0
1.545000 1.089912 0
1.550000 1.175297 3
1.555000 1.002531 0
1.560000 0.645684 0
1.565000 0.241205 0
1.570000 -0.094789 0
1.575000 -0.305105 0
1.580000 -0.383264 4
1.585000 -0.355623 0
1.590000 -0.267440 0
1.595000 -0.165293 0
1.600000 -0.079184 0
1.605000 -0.016982 0
1.610000 0.027490 0
1.615000 0.063332 0
1.620000 0.096676 0
1.625000 0.130137 0
1.630000 0.164215 0
1.635000 0.198498 0
1.640000 0.232233 0
1.645000 0.264541 0
1.650000 0.294498 0
1.655000 0.321185 0
1.660000 0.343737 0
1.665000 0.361389 0
1.670000 0.373515 0
1.675000 0.379669 5
1.680000 0.379608 0
1.685000 0.373307 0
1.690000 0.360964 0
1.695000 0.342985 0
1.700000 0.319966 0
1.705000 0.292655 0
1.710000 0.261912 0
1.715000 0.228668 0
1.720000 0.193871 0
1.725000 0.158449 0
1.730000 0.123263 0
1.735000 0.089082 0
1.740000 0.056553 0
1.745000 0.026189 0
1.750000 -0.001633 0
1.755000 -0.026677 0
1.760000 -0.048830 0
1.765000 -0.068090 0
1.770000 -0.084550 0
1.775000 -0.098373 0
1.780000 -0.109773 0
1.785000 -0.118997 0
1.790000 -0.126309 0
1.795000 -0.131972 0
1.800000 -0.136240 0
1.805000 -0.139347 0
1.810000 -0.141050 0
1.815000 -0.140068 0
1.820000 -0.139090 0
1.825000 -0.138116 0
1.830000 -0.137146 0
1.835000 -0.136177 0
1.840000 -0.135207 0
1.845000 -0.134228 0
1.850000 -0.133229 0
1.855000 -0.132188 0
1.860000 -0.131067 0
1.865000 -0.129804 0
1.870000 -0.128299 0
1.875000 -0.126399 0
1.880000 -0.123882 0
1.885000 -0.120438 0
1.890000 -0.115659 0
1.895000 -0.109032 0
1.900000 -0.099967 0
1.905000 -0.087830 0
1.910000 -0.072021 0
1.915000 -0.052077 0
1.920000 -0.027797 0
1.925000 0.000635 0
1.930000 0.032545 0
1.935000 0.066709 0
1.940000 0.101384 0
1.945000 0.134417 0
1.950000 0.163453 0
1.955000 0.186202 0
1.960000 0.200742 0
1.965000 0.205780 1
1.970000 0.200847 0
1.975000 0.186370 0
1.980000 0.163609 0
1.985000 0.134473 0
1.990000 0.101241 0
1.995000 0.066175 0
2.000000 0.030971 0
2.005000 -0.004111 0
2.010000 -0.041337 0
2.015000 -0.085741 0
2.020000 -0.142321 0
2.025000 -0.209096 0
2.030000 -0.269732 0
2.035000 -0.292918 2
2.040000 -0.240699 0
2.045000 -0.080456 0
2.050000 0.200484 0
2.055000 0.571329 0
2.060000 0.937031 0
2.065000 1.159619 3
2.070000 1.136181 0
2.075000 0.873101 0
2.080000 0.479793 0
2.085000 0.092254 0
2.090000 -0.196565 0
2.095000 -0.352440 0
2.100000 -0.383870 4
2.105000 -0.326288 0
2.110000 -0.227640 0
2.115000 -0.129461 0
2.120000 -0.052741 0
2.125000 0.001520 0
2.130000 0.041711 0
2.135000 0.076093 0
2.140000 0.109321 0
2.145000 0.143022 0
2.150000 0.177249 0
2.155000 0.211425 0
2.160000 0.244739 0
2.165000 0.276295 0
2.170000 0.305168 0
2.175000 0.330459 0
2.180000 0.351339 0
2.185000 0.367090 0
2.190000 0.377150 0
2.195000 0.381144 5
2.200000 0.378905 0
2.205000 0.370486 0
2.210000 0.356158 0
2.215000 0.336391 0
2.220000 0.311834 0
2.225000 0.283273 0
2.230000 0.251594 0
2.235000 0.217732 0
2.240000 0.182630 0
2.245000 0.147193 0
2.250000 0.112251 0
2.255000 0.078531 0
2.260000 0.046637 0
2.265000 0.017037 0
2.270000 -0.009940 0
2.275000 -0.034098 0
2.280000 -0.055361 0
2.285000 -0.073757 0
2.290000 -0.089403 0
2.295000 -0.102477 0
2.300000 -0.113206 0
2.305000 -0.121841 0
2.310000 -0.128645 0
2.315000 -0.133879 0
2.320000 -0.137790 0
2.325000 -0.140606 0
2.330000 -0.140177 0
2.335000 -0.139199 0
2.340000 -0.138225 0
2.345000 -0.137255 0
2.350000 -0.136289 0
2.355000 -0.135323 0
2.360000 -0.134354 0
2.365000 -0.133375 0
2.370000 -0.132371 0
2.375000 -0.131316 0
2.380000 -0.130169 0
2.385000 -0.128859 0
2.390000 -0.127276 0
2.395000 -0.125251 0
2.400000 -0.122544 0
2.405000 -0.118823 0
2.410000 -0.113656 0
2.415000 -0.106514 0
2.420000 -0.096792 0
2.425000 -0.083862 0
2.430000 -0.067148 0
2.435000 -0.046237 0
2.440000 -0.021003 0
2.445000 0.008267 0
2.450000 0.040786 0
2.455000 0.075219 0
2.460000 0.109731 0
2.465000 0.142117 0
2.470000 0.170024 0
2.475000 0.191227 0
2.480000 0.203919 0
2.485000 0.206970 1
2.490000 0.200090 0
2.495000 0.183874 0
2.500000 0.159720 0
2.505000 0.129623 0
2.510000 0.095878 0
2.515000 0.060683 0
2.520000 0.025537 0
2.525000 -0.009678 0
2.530000 -0.047746 0
2.535000 -0.093995 0
2.540000 -0.152785 0
2.545000 -0.220131 0
2.550000 -0.277048 0
2.555000 -0.290530 2
2.560000 -0.222847 0
2.565000 -0.043584 0
2.570000 0.254848 0
2.575000 0.632707 0
2.580000 0.985947 0
2.585000 1.176590 3
2.590000 1.114898 0
2.595000 0.824851 0
2.600000 0.424579 0
2.605000 0.046480 0
2.610000 -0.225248 0
2.615000 -0.363441 0
2.620000 -0.380879 4
2.625000 -0.315342 0
2.630000 -0.214816 0
2.635000 -0.118593 0
2.640000 -0.044797 0
2.645000 0.007324 0
2.650000 0.046489 0
2.655000 0.080576 0
2.660000 0.113812 0
2.665000 0.147578 0
2.670000 0.181827 0
2.675000 0.215949 0
2.680000 0.249126 0
2.685000 0.280458 0
2.690000 0.309029 0
2.695000 0.333948 0
2.700000 0.354397 0
2.705000 0.369676 0
2.710000 0.379240 0
2.715000 0.382732 5
2.720000 0.380003 0
2.725000 0.371124 0
2.730000 0.356379 0
2.735000 0.336250 0
2.740000 0.311393 0
2.745000 0.282598 0
2.750000 0.250752 0
2.755000 0.216786 0
2.760000 0.181636 0
2.765000 0.146200 0
2.770000 0.111300 0
2.775000 0.077652 0
2.780000 0.045850 0
2.785000 0.016355 0
2.790000 -0.010514 0
2.795000 -0.034565 0
2.800000 -0.055728 0
2.805000 -0.074034 0
2.810000 -0.089601 0
2.815000 -0.102609 0
2.820000 -0.113283 0
2.825000 -0.121876 0
2.830000 -0.128647 0
2.835000 -0.133857 0
2.840000 -0.137752 0
2.845000 -0.140557 0
2.850000 -0.140127 0
2.855000 -0.139149 0
2.860000 -0.138175 0
2.865000 -0.137206 0
2.870000 -0.136239 0
2.875000 -0.135274 0
2.880000 -0.134306 0
2.885000 -0.133327 0
2.890000 -0.132323 0
2.895000 -0.131270 0
2.900000 -0.130126 0
2.905000 -0.128820 0
2.910000 -0.127245 0
2.915000 -0.125234 0
2.920000 -0.122550 0
2.925000 -0.118867 0
2.930000 -0.113756 0
2.935000 -0.106696 0
2.940000 -0.097086 0
2.945000 -0.084300 0
2.950000 -0.067762 0
2.955000 -0.047052 0
2.960000 -0.022029 0
2.965000 0.007046 0
2.970000 0.039417 0
2.975000 0.073783 0
2.980000 0.108347 0
2.985000 0.140930 0
2.990000 0.169193 0
2.995000 0.190906 0
3.000000 0.204235 0
3.005000 0.208002 1
3.010000 0.201853 0
3.015000 0.186318 0
3.020000 0.162731 0
3.025000 0.133038 0
3.030000 0.099511 0
3.035000 0.064365 0
3.040000 0.029184 0
3.045000 -0.005955 0
3.050000 -0.043544 0
3.055000 -0.088727 0
3.060000 -0.146220 0
3.065000 -0.213279 0
3.070000 -0.272697 0
3.075000 -0.292789 2
3.080000 -0.235953 0
3.085000 -0.070479 0
3.090000 0.214881 0
3.095000 0.587483 0
3.100000 0.951134 0
3.105000 1.168919 3
3.110000 1.140660 0
3.115000 0.874770 0
3.120000 0.480817 0
3.125000 0.093576 0
3.130000 -0.195097 0
3.135000 -0.351359 0
3.140000 -0.383558 4
3.145000 -0.326705 0
3.150000 -0.228325 0
3.155000 -0.129857 0
3.160000 -0.052559 0
3.165000 0.002222 0
3.170000 0.042708 0
3.175000 0.077184 0
3.180000 0.110400 0
3.185000 0.144058 0
3.190000 0.178257 0
3.195000 0.212440 0
3.200000 0.245814 0
3.205000 0.277489 0
3.210000 0.306552 0
3.215000 0.332106 0
3.220000 0.353323 0
3.225000 0.369483 0
3.230000 0.380013 0
3.235000 0.384527 5
3.240000 0.382840 0
3.245000 0.374985 0
3.250000 0.361210 0
3.255000 0.341963 0
3.260000 0.317871 0
3.265000 0.289701 0
3.270000 0.258322 0
3.275000 0.224659 0
3.280000 0.189648 0
3.285000 0.154193 0
3.290000 0.119129 0
3.295000 0.085192 0
3.300000 0.052998 0
3.305000 0.023030 0
3.310000 -0.004365 0
3.315000 -0.028973 0
3.320000 -0.050703 0
3.325000 -0.069566 0
3.330000 -0.085666 0
3.335000 -0.099172 0
3.340000 -0.110299 0
3.345000 -0.119296 0
3.350000 -0.126422 0
3.355000 -0.131937 0
3.360000 -0.136088 0
3.365000 -0.139108 0
3.370000 -0.140756 0
3.375000 -0.139775 0
3.380000 -0.138798 0
3.385000 -0.137826 0
3.390000 -0.136857 0
3.395000 -0.135889 0
3.400000 -0.134920 0
3.405000 -0.133942 0
3.410000 -0.132944 0
3.415000 -0.131903 0
3.420000 -0.130782 0
3.425000 -0.129520 0
3.430000 -0.128016 0
3.435000 -0.126122 0
3.440000 -0.123618 0
3.445000 -0.120201 0
3.450000 -0.115468 0
3.455000 -0.108919 0
3.460000 -0.099972 0
3.465000 -0.088003 0
3.470000 -0.072416 0
3.475000 -0.052745 0
3.480000 -0.028769 0
3.485000 -0.000640 0
3.490000 0.031014 0
3.495000 0.065034 0
3.500000 0.099742 0
3.505000 0.133044 0
3.510000 0.162626 0
3.515000 0.186208 0
3.520000 0.201836 0
3.525000 0.208147 1
3.530000 0.204564 0
3.535000 0.191389 0
3.540000 0.169755 0
3.545000 0.141466 0
3.550000 0.108735 0
3.555000 0.073828 0
3.560000 0.038567 0
3.565000 0.003540 0
3.570000 -0.032959 0
3.575000 -0.075466 0
3.580000 -0.129359 0
3.585000 -0.194785 0
3.590000 -0.259008 0
3.595000 -0.293909 2
3.600000 -0.262505 0
3.605000 -0.130284 0
3.610000 0.121712 0
3.615000 0.476216 0
3.620000 0.855823 0
3.625000 1.129719 0
3.630000 1.177920 3
3.635000 0.973455 0
3.640000 0.602326 0
3.645000 0.200999 0
3.650000 -0.122144 0
3.655000 -0.317430 0
3.660000 -0.382861 4
3.665000 -0.347078 0
3.670000 -0.255797 0
3.675000 -0.154172 0
3.680000 -0.069949 0
3.685000 -0.009370 0
3.690000 0.034231 0
3.695000 0.069762 0
3.700000 0.103048 0
3.705000 0.136513 0
3.710000 0.170588 0
3.715000 0.204839 0
3.720000 0.238519 0
3.725000 0.270757 0
3.730000 0.300638 0
3.735000 0.327257 0
3.740000 0.349760 0
3.745000 0.367392 0
3.750000 0.379535 0
3.755000 0.385747 0
3.760000 0.385784 5
3.765000 0.379619 0
3.770000 0.367441 0
3.775000 0.349645 0
3.780000 0.326812 0
3.785000 0.299675 0
3.790000 0.269080 0
3.795000 0.235943 0
3.800000 0.201200 0
3.805000 0.165771 0
3.810000 0.130512 0
3.815000 0.096192 0
3.820000 0.063460 0
3.825000 0.032838 0
3.830000 0.004709 0
3.835000 -0.020677 0
3.840000 -0.043197 0
3.845000 -0.062836 0
3.850000 -0.079676 0
3.855000 -0.093868 0
3.860000 -0.105619 0
3.865000 -0.115171 0
3.870000 -0.122780 0
3.875000 -0.128709 0
3.880000 -0.133209 0
3.885000 -0.136517 0
3.890000 -0.138367 0
3.895000 -0.137398 0
3.900000 -0.136434 0
3.905000 -0.135473 0
3.910000 -0.134517 0
3.915000 -0.133562 0
3.920000 -0.132607 0
3.925000 -0.131645 0
3.930000 -0.130666 0
3.935000 -0.129652 0
3.940000 -0.128569 0
3.945000 -0.127363 0
3.950000 -0.125947 0
3.955000 -0.124184 0
3.960000 -0.121875 0
3.965000 -0.118739 0
3.970000 -0.114399 0
3.975000 -0.108380 0
3.980000 -0.100116 0
3.985000 -0.088988 0
3.990000 -0.074385 0
3.995000 -0.055795 0
4.000000 -0.032923 0
4.005000 -0.005817 0
4.010000 0.025025 0
4.015000 0.058577 0
4.020000 0.093283 0
4.025000 0.127139 0
4.030000 0.157861 0
4.035000 0.183131 0
4.040000 0.200884 0
4.045000 0.209587 1
4.050000 0.208454 0
4.055000 0.197567 0
4.060000 0.177866 0
4.065000 0.151012 0
4.070000 0.119148 0
4.075000 0.084569 0
4.080000 0.049266 0
4.085000 0.014223 0
4.090000 -0.021612 0
4.095000 -0.062136 0
4.100000 -0.112927 0
4.105000 -0.176143 0
4.110000 -0.242704 0
4.115000 -0.287912 2
4.120000 -0.275916 0
4.125000 -0.170489 0
4.130000 0.052567 0
4.135000 0.387060 0
4.140000 0.771182 0
4.145000 1.083011 0
4.150000 1.191737 3
4.155000 1.042811 0
4.160000 0.698709 0
4.165000 0.292805 0
4.170000 -0.054501 0
4.175000 -0.279921 0
4.180000 -0.372389 4
4.185000 -0.355094 0
4.190000 -0.271607 0
4.195000 -0.169137 0
4.200000 -0.080175 0
4.205000 -0.015082 0
4.210000 0.031153 0
4.215000 0.067675 0
4.220000 0.101098 0
4.225000 0.134432 0
4.230000 0.168387 0
4.235000 0.202636 0
4.240000 0.236463 0
4.245000 0.269006 0
4.250000 0.299350 0
4.255000 0.326578 0
4.260000 0.349819 0
4.265000 0.368292 0
4.270000 0.381352 0
4.275000 0.388520 0
4.280000 0.389519 5
4.285000 0.384287 0
4.290000 0.372980 0
4.295000 0.355966 0
4.300000 0.333803 0
4.305000 0.307209 0
4.310000 0.277022 0
4.315000 0.244155 0
4.320000 0.209553 0
4.325000 0.174144 0
4.330000 0.138800 0
4.335000 0.104307 0
4.340000 0.071335 0
4.345000 0.040425 0
4.350000 0.011977 0
4.355000 -0.013741 0
4.360000 -0.036591 0
4.365000 -0.056549 0
4.370000 -0.073687 0
4.375000 -0.088151 0
4.380000 -0.100146 0
4.385000 -0.109910 0
4.390000 -0.117702 0
4.395000 -0.123786 0
4.400000 -0.128417 0
4.405000 -0.131833 0
4.410000 -0.133763 0
4.415000 -0.132817 0
4.420000 -0.131875 0
4.425000 -0.130938 0
4.430000 -0.130004 0
4.435000 -0.129072 0
4.440000 -0.128139 0
4.445000 -0.127200 0
4.450000 -0.126245 0
4.455000 -0.125256 0
4.460000 -0.124199 0
4.465000 -0.123022 0
4.470000 -0.121637 0
4.475000 -0.119911 0
4.480000 -0.117644 0
4.485000 -0.114558 0
4.490000 -0.110275 0
4.495000 -0.104320 0
4.500000 -0.096125 0
4.505000 -0.085068 0
4.510000 -0.070532 0
4.515000 -0.052001 0
4.520000 -0.029177 0
4.525000 -0.002102 0
4.530000 0.028721 0
4.535000 0.062261 0
4.540000 0.096951 0
4.545000 0.130771 0
4.550000 0.161422 0
4.555000 0.186572 0
4.560000 0.204152 0
4.565000 0.212628 1
4.570000 0.211231 0
4.575000 0.200064 0
4.580000 0.180095 0
4.585000 0.153015 0
4.590000 0.120993 0
4.595000 0.086333 0
4.600000 0.051015 0
4.605000 0.015962 0
4.610000 -0.020011 0
4.615000 -0.060961 0
4.620000 -0.112486 0
4.625000 -0.176323 0
4.630000 -0.242442 0
4.635000 -0.285057 2
4.640000 -0.267710 0
4.645000 -0.154368 0
4.650000 0.077837 0
4.655000 0.419310 0
4.660000 0.802679 0
4.665000 1.101803 0
4.670000 1.188359 3
4.675000 1.017312 0
4.680000 0.661040 0
4.685000 0.256457 0
4.690000 -0.079679 0
4.695000 -0.289866 0
4.700000 -0.367650 4
4.705000 -0.339590 0
4.710000 -0.251203 0
4.715000 -0.149189 0
4.720000 -0.063450 0
4.725000 -0.001648 0
4.730000 0.042535 0
4.735000 0.078213 0
4.740000 0.111473 0
4.745000 0.144878 0
4.750000 0.178900 0
4.755000 0.213110 0
4.760000 0.246747 0
4.765000 0.278926 0
4.770000 0.308718 0
4.775000 0.335201 0
4.780000 0.357509 0
4.785000 0.374878 0
4.790000 0.386687 0
4.795000 0.392495 5
4.800000 0.392068 0
4.805000 0.385394 0
4.810000 0.372679 0
4.815000 0.354345 0
4.820000 0.330997 0
4.825000 0.303395 0
4.830000 0.272409 0
4.835000 0.238975 0
4.840000 0.204047 0
4.845000 0.168551 0
4.850000 0.133350 0
4.855000 0.099205 0
4.860000 0.066759 0
4.865000 0.036517 0
4.870000 0.008845 0
4.875000 -0.016029 0
4.880000 -0.038001 0
4.885000 -0.057079 0
4.890000 -0.073361 0
4.895000 -0.087018 0
4.900000 -0.098268 0
4.905000 -0.107362 0
4.910000 -0.114565 0
4.915000 -0.120140 0
4.920000 -0.124340 0
4.925000 -0.127401 0
4.930000 -0.129090 0
4.935000 -0.128167 0
4.940000 -0.127248 0
4.945000 -0.126334 0
4.950000 -0.125422 0
4.955000 -0.124511 0
4.960000 -0.123598 0
4.965000 -0.122675 0
4.970000 -0.121729 0
4.975000 -0.120737 0
4.980000 -0.119659 0
4.985000 -0.118426 0
4.990000 -0.116935 0
4.995000 -0.115022 0
5.000000 -0.112454 0
5.005000 -0.108906 0
5.010000 -0.103952 0
5.015000 -0.097068 0
5.020000 -0.087647 0
5.025000 -0.075055 0
5.030000 -0.058702 0
5.035000 -0.038154 0
5.040000 -0.013260 0
5.045000 0.015726 0
5.050000 0.048039 0
5.055000 0.082366 0
5.060000 0.116878 0
5.065000 0.149363 0
5.070000 0.177446 0
5.075000 0.198870 0
5.080000 0.211793 0
5.085000 0.215049 1
5.090000 0.208323 0
5.095000 0.192199 0
5.100000 0.168078 0
5.105000 0.137967 0
5.110000 0.104184 0
5.115000 0.068944 0
5.120000 0.033758 0
5.125000 -0.001515 0
5.130000 -0.039728 0
5.135000 -0.086285 0
5.140000 -0.145476 0
5.145000 -0.212910 0
5.150000 -0.268881 0
5.155000 -0.279687 2
5.160000 -0.207307 0
5.165000 -0.021732 0
5.170000 0.282850 0
5.175000 0.662772 0
5.180000 1.009333 0
5.185000 1.183676 3
5.190000 1.101336 0
5.195000 0.795242 0
5.200000 0.391635 0
5.205000 0.023153 0
5.210000 -0.231210 0
5.215000 -0.350100 0
5.220000 -0.351239 4
5.225000 -0.276258 0
5.230000 -0.174237 0
5.235000 -0.081948 0
5.240000 -0.013453 0
5.245000 0.034769 0
5.250000 0.072024 0
5.255000 0.105550 0
5.260000 0.138796 0
5.265000 0.172663 0
5.270000 0.206877 0
5.275000 0.240724 0
5.280000 0.273330 0
5.285000 0.303759 0
5.290000 0.331074 0
5.295000 0.354378 0
5.300000 0.372872 0
5.305000 0.385893 0
5.310000 0.392952 0
5.315000 0.393768 5
5.320000 0.388283 0
5.325000 0.376664 0
5.330000 0.359298 0
5.335000 0.336767 0
5.340000 0.309814 0
5.345000 0.279305 0
5.350000 0.246181 0
5.355000 0.211406 0
5.360000 0.175926 0
5.365000 0.140624 0
5.370000 0.106289 0
5.375000 0.073586 0
5.380000 0.043045 0
5.385000 0.015054 0
5.390000 -0.010141 0
5.395000 -0.032423 0
5.400000 -0.051788 0
5.405000 -0.068329 0
5.410000 -0.082212 0
5.415000 -0.093655 0
5.420000 -0.102910 0
5.425000 -0.110244 0
5.430000 -0.115924 0
5.435000 -0.120209 0
5.440000 -0.123336 0
5.445000 -0.125072 0
5.450000 -0.124169 0
5.455000 -0.123271 0
5.460000 -0.122376 0
5.465000 -0.121484 0
5.470000 -0.120593 0
5.475000 -0.119699 0
5.480000 -0.118796 0
5.485000 -0.117869 0
5.490000 -0.116895 0
5.495000 -0.115833 0
5.500000 -0.114613 0
5.505000 -0.113129 0
5.510000 -0.111212 0
5.515000 -0.108624 0
5.520000 -0.105029 0
5.525000 -0.099993 0
5.530000 -0.092977 0
5.535000 -0.083365 0
5.540000 -0.070514 0
5.545000 -0.053835 0
5.550000 -0.032909 0
5.555000 -0.007613 0
5.560000 0.021747 0
5.565000 0.054341 0
5.570000 0.088779 0
5.575000 0.123156 0
5.580000 0.155199 0
5.585000 0.182504 0
5.590000 0.202823 0
5.595000 0.214375 0
5.600000 0.216097 1
5.605000 0.207810 0
5.610000 0.190243 0
5.615000 0.164933 0
5.620000 0.133991 0
5.625000 0.099776 0
5.630000 0.064455 0
5.635000 0.029323 0
5.640000 -0.006229 0
5.645000 -0.045703 0
5.650000 -0.094789 0
5.655000 -0.156658 0
5.660000 -0.223824 0
5.665000 -0.272642 2
5.670000 -0.266925 0
5.675000 -0.168974 0
5.680000 0.047414 0
5.685000 0.378133 0
5.690000 0.762146 0
5.695000 1.075266 0
5.700000 1.182795 3
5.705000 1.029114 0
5.710000 0.680443 0
5.715000 0.275205 0
5.720000 -0.064879 0
5.725000 -0.278660 0
5.730000 -0.358364 4
5.735000 -0.330710 0
5.740000 -0.242143 0
5.745000 -0.140295 0
5.750000 -0.055299 0
5.755000 0.005579 0
5.760000 0.049087 0
5.765000 0.084457 0
5.770000 0.117657 0
5.775000 0.151100 0
5.780000 0.185152 0
5.785000 0.219326 0
5.790000 0.252825 0
5.795000 0.284734 0
5.800000 0.314101 0
5.805000 0.339990 0
5.810000 0.361528 0
5.815000 0.377953 0
5.820000 0.388661 0
5.825000 0.393239 5
5.830000 0.391491 0
5.835000 0.383452 0
5.840000 0.369384 0
5.845000 0.349761 0
5.850000 0.325247 0
5.855000 0.296649 0
5.860000 0.264881 0
5.865000 0.230909 0
5.870000 0.195704 0
5.875000 0.160200 0
5.880000 0.125247 0
5.885000 0.091588 0
5.890000 0.059834 0
5.895000 0.030453 0
5.900000 0.003769 0
5.905000 -0.020034 0
5.910000 -0.040895 0
5.915000 -0.058860 0
5.920000 -0.074062 0
5.925000 -0.086696 0
5.930000 -0.097004 0
5.935000 -0.105248 0
5.940000 -0.111702 0
5.945000 -0.116630 0
5.950000 -0.120284 0
5.955000 -0.122892 0
5.960000 -0.122506 0
5.965000 -0.121615 0
5.970000 -0.120729 0
5.975000 -0.119846 0
5.980000 -0.118965 0
5.985000 -0.118083 0
5.990000 -0.117195 0
5.995000 -0.116290 0
6.000000 -0.115350 0
6.005000 -0.114341 0
6.010000 -0.113206 0
6.015000 -0.111855 0
6.020000 -0.110146 0
6.025000 -0.107867 0
6.030000 -0.104722 0
6.035000 -0.100310 0
6.040000 -0.094127 0
6.045000 -0.085575 0
6.050000 -0.074008 0
6.055000 -0.058798 0
6.060000 -0.039444 0
6.065000 -0.015700 0
6.070000 0.012293 0
6.075000 0.043892 0
6.080000 0.077887 0
6.085000 0.112518 0
6.090000 0.145594 0
6.095000 0.174699 0
6.100000 0.197477 0
6.105000 0.211946 0
6.110000 0.216781 1
6.115000 0.211512 0
6.120000 0.196603 0
6.125000 0.173379 0
6.130000 0.143831 0
6.135000 0.110308 0
6.140000 0.075110 0
6.145000 0.039879 0
6.150000 0.004648 0
6.155000 -0.033287 0
6.160000 -0.079350 0
6.165000 -0.138111 0
6.170000 -0.205521 0
6.175000 -0.261841 0
6.180000 -0.272772 2
6.185000 -0.199461 0
6.190000 -0.011399 0
6.195000 0.296533 0
6.200000 0.677593 0
6.205000 1.018184 0
6.210000 1.177169 3
6.215000 1.075401 0
6.220000 0.755993 0
6.225000 0.350785 0
6.230000 -0.009074 0
6.235000 -0.249612 0
6.240000 -0.354114 4
6.245000 -0.343875 0
6.250000 -0.262961 0
6.255000 -0.160597 0
6.260000 -0.071282 0
6.265000 -0.006217 0
6.270000 0.039734 0
6.275000 0.076022 0
6.280000 0.109361 0
6.285000 0.142708 0
6.290000 0.176687 0
6.295000 0.210905 0
6.300000 0.244594 0
6.305000 0.276850 0
6.310000 0.306719 0
6.315000 0.333254 0
6.320000 0.355566 0
6.325000 0.372868 0
6.330000 0.384527 0
6.335000 0.390094 5
6.340000 0.389339 0
6.345000 0.382259 0
6.350000 0.369084 0
6.355000 0.350260 0
6.360000 0.326426 0
6.365000 0.298375 0
6.370000 0.267012 0
6.375000 0.233302 0
6.380000 0.198223 0
6.385000 0.162718 0
6.390000 0.127657 0
6.395000 0.093800 0
6.400000 0.061779 0
6.405000 0.032084 0
6.410000 0.005056 0
6.415000 -0.019100 0
6.420000 -0.040310 0
6.425000 -0.058608 0
6.430000 -0.074118 0
6.435000 -0.087030 0
6.440000 -0.097581 0
6.445000 -0.106035 0
6.450000 -0.112664 0
6.455000 -0.117737 0
6.460000 -0.121507 0
6.465000 -0.124206 0
6.470000 -0.123827 0
6.475000 -0.122930 0
6.480000 -0.122038 0
6.485000 -0.121148 0
6.490000 -0.120261 0
6.495000 -0.119374 0
6.500000 -0.118480 0
6.505000 -0.117572 0
6.510000 -0.116629 0
6.515000 -0.115622 0
6.520000 -0.114494 0
6.525000 -0.113159 0
6.530000 -0.111478 0
6.535000 -0.109246 0
6.540000 -0.106171 0
6.545000 -0.101860 0
6.550000 -0.095812 0
6.555000 -0.087435 0
6.560000 -0.076080 0
6.565000 -0.061112 0
6.570000 -0.042019 0
6.575000 -0.018531 0
6.580000 0.009236 0
6.585000 0.040667 0
6.590000 0.074580 0
6.595000 0.109236 0
6.600000 0.142454 0
6.605000 0.171811 0
6.610000 0.194933 0
6.615000 0.209806 0
6.620000 0.215067 1
6.625000 0.210205 0
6.630000 0.195649 0
6.635000 0.172699 0
6.640000 0.143334 0
6.645000 0.109908 0
6.650000 0.074738 0
6.655000 0.039505 0
6.660000 0.004300 0
6.665000 -0.033511 0
6.670000 -0.079331 0
6.675000 -0.137834 0
6.680000 -0.205204 0
6.685000 -0.261923 0
6.690000 -0.273725 2
6.695000 -0.201585 0
6.700000 -0.014699 0
6.705000 0.292418 0
6.710000 0.673320 0
6.715000 1.014302 0
6.720000 1.173660 3
6.725000 1.072136 0
6.730000 0.753203 0
6.735000 0.348065 0
6.740000 -0.012450 0
6.745000 -0.254221 0
6.750000 -0.360175 4
6.755000 -0.351186 0
6.760000 -0.270941 0
6.765000 -0.168553 0
6.770000 -0.078767 0
6.775000 -0.013161 0
6.780000 0.033163 0
6.785000 0.069625 0
6.790000 0.103019 0
6.795000 0.136375 0
6.800000 0.170363 0
6.805000 0.204610 0
6.810000 0.238359 0
6.815000 0.270713 0
6.820000 0.300723 0
6.825000 0.327444 0
6.830000 0.349987 0
6.835000 0.367564 0
6.840000 0.379535 0
6.845000 0.385446 5
6.850000 0.385053 0
6.855000 0.378342 0
6.860000 0.365530 0
6.865000 0.347049 0
6.870000 0.323525 0
6.875000 0.295741 0
6.880000 0.264589 0
6.885000 0.231031 0
6.890000 0.196040 0
6.895000 0.160559 0
6.900000 0.125461 0
6.905000 0.091512 0
6.910000 0.059352 0
6.915000 0.029479 0
6.920000 0.002245 0
6.925000 -0.022134 0
6.930000 -0.043576 0
6.935000 -0.062104 0
6.940000 -0.077836 0
6.945000 -0.090955 0
6.950000 -0.101695 0
6.955000 -0.110317 0
6.960000 -0.117090 0
6.965000 -0.122284 0
6.970000 -0.126153 0
6.975000 -0.128930 0
6.980000 -0.128543 0
6.985000 -0.127623 0
6.990000 -0.126707 0
6.995000 -0.125795 0
7.000000 -0.124885 0
7.005000 -0.123975 0
7.010000 -0.123060 0
7.015000 -0.122132 0
7.020000 -0.121173 0
7.025000 -0.120154 0
7.030000 -0.119024 0
7.035000 -0.117701 0
7.040000 -0.116055 0
7.045000 -0.113891 0
7.050000 -0.110931 0
7.055000 -0.106798 0
7.060000 -0.101010 0
7.065000 -0.092986 0
7.070000 -0.082085 0
7.075000 -0.067668 0
7.080000 -0.049197 0
7.085000 -0.026361 0
7.090000 0.000792 0
7.095000 0.031733 0
7.100000 0.065374 0
7.105000 0.100068 0
7.110000 0.133699 0
7.115000 0.163878 0
7.120000 0.188210 0
7.125000 0.204610 0
7.130000 0.211592 1
7.135000 0.208494 0
7.140000 0.195580 0
7.145000 0.174006 0
7.150000 0.145641 0
7.155000 0.112789 0
7.160000 0.077801 0
7.165000 0.042527 0
7.170000 0.007440 0
7.175000 -0.029507 0
7.180000 -0.073298 0
7.185000 -0.129227 0
7.190000 -0.195832 0
7.195000 -0.257004 0
7.200000 -0.280949 2
7.205000 -0.228736 0
7.210000 -0.066909 0
7.215000 0.217049 0
7.220000 0.589847 0
7.225000 0.951312 0
7.230000 1.159569 3
7.235000 1.115221 0
7.240000 0.835113 0
7.245000 0.436739 0
7.250000 0.056645 0
7.255000 -0.217102 0
7.260000 -0.355774 0
7.265000 -0.372317 4
7.270000 -0.305587 0
7.275000 -0.204732 0
7.280000 -0.109380 0
7.285000 -0.037051 0
7.290000 0.013810 0
7.295000 0.052280 0
7.300000 0.086148 0
7.305000 0.119403 0
7.310000 0.153240 0
7.315000 0.187509 0
7.320000 0.221541 0
7.325000 0.254482 0
7.330000 0.285403 0
7.335000 0.313365 0
7.340000 0.337465 0
7.345000 0.356885 0
7.350000 0.370936 0
7.355000 0.379102 0
7.360000 0.381064 5
7.365000 0.376724 0
7.370000 0.366212 0
7.375000 0.349878 0
7.380000 0.328268 0
7.385000 0.302101 0
7.390000 0.272222 0
7.395000 0.239558 0
7.400000 0.205073 0
7.405000 0.169717 0
7.410000 0.134384 0
7.415000 0.099880 0
7.420000 0.066895 0
7.425000 0.035982 0
7.430000 0.007555 0
7.435000 -0.018116 0
7.440000 -0.040889 0
7.445000 -0.060742 0
7.450000 -0.077750 0
7.455000 -0.092066 0
7.460000 -0.103900 0
7.465000 -0.113499 0
7.470000 -0.121126 0
7.475000 -0.127050 0
7.480000 -0.131531 0
7.485000 -0.134810 0
7.490000 -0.136634 0
7.495000 -0.135673 0
7.500000 -0.134717 0
7.505000 -0.133766 0
7.510000 -0.132817 0
7.515000 -0.131871 0
7.520000 -0.130922 0
7.525000 -0.129967 0
7.530000 -0.128992 0
7.535000 -0.127976 0
7.540000 -0.126883 0
7.545000 -0.125650 0
7.550000 -0.124180 0
7.555000 -0.122320 0
7.560000 -0.119848 0
7.565000 -0.116452 0
7.570000 -0.111720 0
7.575000 -0.105135 0
7.580000 -0.096097 0
7.585000 -0.083964 0
7.590000 -0.068127 0
7.595000 -0.048121 0
7.600000 -0.023744 0
7.605000 0.004803 0
7.610000 0.036816 0
7.615000 0.071035 0
7.620000 0.105665 0
7.625000 0.138505 0
7.630000 0.167162 0
7.635000 0.189329 0
7.640000 0.203096 0
7.645000 0.207217 1
7.650000 0.201297 0
7.655000 0.185858 0
7.660000 0.162259 0
7.665000 0.132495 0
7.670000 0.098897 0
7.675000 0.063723 0
7.680000 0.028555 0
7.685000 -0.006646 0
7.690000 -0.044633 0
7.695000 -0.090803 0
7.700000 -0.149620 0
7.705000 -0.216988 0
7.710000 -0.273366 0
7.715000 -0.284898 2
7.720000 -0.213171 0
7.725000 -0.027786 0
7.730000 0.277161 0
7.735000 0.657334 0
7.740000 1.002483 0
7.745000 1.172579 3
7.750000 1.085434 0
7.755000 0.777809 0
7.760000 0.374200 0
7.765000 0.004883 0
7.770000 -0.252022 0
7.775000 -0.374668 0
7.780000 -0.379580 4
7.785000 -0.306982 0
7.790000 -0.205172 0
7.795000 -0.111385 0
7.800000 -0.040905 0
7.805000 0.008827 0
7.810000 0.046868 0
7.815000 0.080671 0
7.820000 0.113974 0
7.825000 0.147866 0
7.830000 0.182170 0
7.835000 0.216222 0
7.840000 0.249177 0
7.845000 0.280123 0
7.850000 0.308138 0
7.855000 0.332332 0
7.860000 0.351900 0
7.865000 0.366162 0
7.870000 0.374603 0
7.875000 0.376903 5
7.880000 0.372954 0
7.885000 0.362870 0
7.890000 0.346982 0
7.895000 0.325814 0
7.900000 0.300059 0
7.905000 0.270538 0
7.910000 0.238159 0
7.915000 0.203866 0
7.920000 0.168596 0
7.925000 0.133239 0
7.930000 0.098602 0
7.935000 0.065377 0
7.940000 0.034133 0
7.945000 0.005295 0
7.950000 -0.020845 0
7.955000 -0.044127 0
7.960000 -0.064509 0
7.965000 -0.082048 0
7.970000 -0.096881 0
7.975000 -0.109204 0
7.980000 -0.119252 0
7.985000 -0.127284 0
7.990000 -0.133564 0
7.995000 -0.138349 0
8.000000 -0.141882 0
8.005000 -0.144386 0
8.010000 -0.143894 0
8.015000 -0.142897 0
8.020000 -0.141905 0
8.025000 -0.140916 0
8.030000 -0.139931 0
8.035000 -0.138945 0
8.040000 -0.137954 0
8.045000 -0.136949 0
8.050000 -0.135913 0
8.055000 -0.134815 0
8.060000 -0.133605 0
8.065000 -0.132201 0
8.070000 -0.130476 0
8.075000 -0.128238 0
8.080000 -0.125219 0
8.085000 -0.121052 0
8.090000 -0.115272 0
8.095000 -0.107319 0
8.100000 -0.096571 0
8.105000 -0.082406 0
8.110000 -0.064289 0
8.115000 -0.041888 0
8.120000 -0.015204 0
8.125000 0.015312 0
8.130000 0.048685 0
8.135000 0.083394 0
8.140000 0.117451 0
8.145000 0.148567 0
8.150000 0.174393 0
8.155000 0.192813 0
8.160000 0.202226 1
8.165000 0.201782 0
8.170000 0.191505 0
8.175000 0.172292 0
8.180000 0.145787 0
8.185000 0.114135 0
8.190000 0.079656 0
8.195000 0.044384 0
8.200000 0.009365 0
8.205000 -0.026386 0
8.210000 -0.066731 0
8.215000 -0.117301 0
8.220000 -0.180379 0
8.225000 -0.246942 0
8.230000 -0.292137 2
8.235000 -0.279770 0
8.240000 -0.173288 0
8.245000 0.051543 0
8.250000 0.387811 0
8.255000 0.771799 0
8.260000 1.079343 0
8.265000 1.179485 3
8.270000 1.021930 0
8.275000 0.674051 0
8.280000 0.268327 0
8.285000 -0.077363 0
8.290000 -0.301506 0
8.295000 -0.393590 4
8.300000 -0.376575 0
8.305000 -0.293426 0
8.310000 -0.190827 0
8.315000 -0.101222 0
8.320000 -0.035321 0
8.325000 0.011544 0
8.330000 0.048414 0
8.335000 0.081981 0
8.340000 0.115372 0
8.345000 0.149375 0
8.350000 0.183707 0
8.355000 0.217678 0
8.360000 0.250445 0
8.365000 0.281106 0
8.370000 0.308756 0
8.375000 0.332528 0
8.380000 0.351641 0
8.385000 0.365441 0
8.390000 0.373435 0
8.395000 0.375324 5
8.400000 0.371018 0
8.405000 0.360643 0
8.410000 0.344531 0
8.415000 0.323209 0
8.420000 0.297361 0
8.425000 0.267798 0
8.430000 0.235413 0
8.435000 0.201134 0
8.440000 0.165884 0
8.445000 0.130538 0
8.450000 0.095889 0
8.455000 0.062624 0
8.460000 0.031304 0
8.465000 0.002354 0
8.470000 -0.023932 0
8.475000 -0.047390 0
8.480000 -0.067972 0
8.485000 -0.085726 0
8.490000 -0.100781 0
8.495000 -0.113325 0
8.500000 -0.123588 0
8.505000 -0.131821 0
8.510000 -0.138284 0
8.515000 -0.143231 0
8.520000 -0.146905 0
8.525000 -0.149527 0
8.530000 -0.149031 0
8.535000 -0.148009 0
8.540000 -0.146991 0
8.545000 -0.145977 0
8.550000 -0.144967 0
8.555000 -0.143957 0
8.560000 -0.142944 0
8.565000 -0.141920 0
8.570000 -0.140869 0
8.575000 -0.139766 0
8.580000 -0.138567 0
8.585000 -0.137200 0
8.590000 -0.135552 0
8.595000 -0.133455 0
8.600000 -0.130666 0
8.605000 -0.126854 0
8.610000 -0.121589 0
8.615000 -0.114347 0
8.620000 -0.104530 0
8.625000 -0.091517 0
8.630000 -0.074745 0
8.635000 -0.053806 0
8.640000 -0.028576 0
8.645000 0.000668 0
8.650000 0.033158 0
8.655000 0.067591 0
8.660000 0.102171 0
8.665000 0.134736 0
8.670000 0.162967 0
8.675000 0.184656 0
8.680000 0.197991 0
8.685000 0.201806 1
8.690000 0.195750 0
8.695000 0.180342 0
8.700000 0.156896 0
8.705000 0.127335 0
8.710000 0.093907 0
8.715000 0.058813 0
8.720000 0.023654 0
8.725000 -0.011424 0
8.730000 -0.048780 0
8.735000 -0.093431 0
8.740000 -0.150212 0
8.745000 -0.217002 0
8.750000 -0.277656 0
8.755000 -0.301472 2
8.760000 -0.251215 0
8.765000 -0.094634 0
8.770000 0.181649 0
8.775000 0.549759 0
8.780000 0.919648 0
8.785000 1.156627 3
8.790000 1.154537 0
8.795000 0.910318 0
8.800000 0.523995 0
8.805000 0.129588 0
8.810000 -0.175421 0
8.815000 -0.350817 0
8.820000 -0.400000 4
8.825000 -0.354240 0
8.830000 -0.259462 0
8.835000 -0.158711 0
8.840000 -0.076820 0
8.845000 -0.018110 0
8.850000 0.024573 0
8.855000 0.059848 0
8.860000 0.093160 0
8.865000 0.126718 0
8.870000 0.160870 0
8.875000 0.195170 0
8.880000 0.228876 0
8.885000 0.261131 0
8.890000 0.291038 0
8.895000 0.317708 0
8.900000 0.340302 0
8.905000 0.358078 0
8.910000 0.370427 0
8.915000 0.376909 0
8.920000 0.377280 5
8.925000 0.371501 0
8.930000 0.359746 0
8.935000 0.342392 0
8.940000 0.319997 0
8.945000 0.293269 0
8.950000 0.263030 0
8.955000 0.230175 0
8.960000 0.195625 0
8.965000 0.160284 0
8.970000 0.125005 0
8.975000 0.090555 0
8.980000 0.057590 0
8.985000 0.026643 0
8.990000 -0.001888 0
8.995000 -0.027736 0
9.000000 -0.050756 0
9.005000 -0.070917 0
9.010000 -0.088279 0
9.015000 -0.102980 0
9.020000 -0.115213 0
9.025000 -0.125208 0
9.030000 -0.133215 0
9.035000 -0.139491 0
9.040000 -0.144288 0
9.045000 -0.147843 0
9.050000 -0.150371 0
9.055000 -0.149858 0
9.060000 -0.148832 0
9.065000 -0.147810 0
9.070000 -0.146792 0
9.075000 -0.145777 0
9.080000 -0.144763 0
9.085000 -0.143746 0
9.090000 -0.142716 0
9.095000 -0.141660 0
9.100000 -0.140550 0
9.105000 -0.139343 0
9.110000 -0.137965 0
9.115000 -0.136306 0
9.120000 -0.134196 0
9.125000 -0.131395 0
9.130000 -0.127573 0
9.135000 -0.122307 0
9.140000 -0.115076 0
9.145000 -0.105291 0
9.150000 -0.092339 0
9.155000 -0.075659 0
9.160000 -0.054844 0
9.165000 -0.029761 0
9.170000 -0.000668 0
9.175000 0.031696 0
9.180000 0.066068 0
9.185000 0.100694 0
9.190000 0.133453 0
9.195000 0.162054 0
9.200000 0.184297 0
9.205000 0.198352 0
9.210000 0.203008 1
9.215000 0.197843 0
9.220000 0.183294 0
9.225000 0.160591 0
9.230000 0.131584 0
9.235000 0.098479 0
9.240000 0.063478 0
9.245000 0.028278 0
9.250000 -0.006738 0
9.255000 -0.043529 0
9.260000 -0.086776 0
9.265000 -0.141624 0
9.270000 -0.207519 0
9.275000 -0.270906 0
9.280000 -0.303367 2
9.285000 -0.268379 0
9.290000 -0.132360 0
9.295000 0.122571 0
9.300000 0.478308 0
9.305000 0.857773 0
9.310000 1.132062 0
9.315000 1.182979 3
9.320000 0.982911 0
9.325000 0.614689 0
9.330000 0.212054 0
9.335000 -0.116640 0
9.340000 -0.319954 0
9.345000 -0.393716 4
9.350000 -0.364360 0
9.355000 -0.275970 0
9.360000 -0.173684 0
9.365000 -0.086851 0
9.370000 -0.023616 0
9.375000 0.021682 0
9.380000 0.057931 0
9.385000 0.091361 0
9.390000 0.124766 0
9.395000 0.158783 0
9.400000 0.193082 0
9.405000 0.226962 0
9.410000 0.259585 0
9.415000 0.290060 0
9.420000 0.317493 0
9.425000 0.341032 0
9.430000 0.359912 0
9.435000 0.373492 0
9.440000 0.381292 0
9.445000 0.383023 5
9.450000 0.378598 0
9.455000 0.368146 0
9.460000 0.351997 0
9.465000 0.330669 0
9.470000 0.304838 0
9.475000 0.275304 0
9.480000 0.242946 0
9.485000 0.208681 0
9.490000 0.173421 0
9.495000 0.138031 0
9.500000 0.103300 0
9.505000 0.069910 0
9.510000 0.038423 0
9.515000 0.009269 0
9.520000 -0.017255 0
9.525000 -0.040978 0
9.530000 -0.061841 0
9.535000 -0.079886 0
9.540000 -0.095233 0
9.545000 -0.108062 0
9.550000 -0.118598 0
9.555000 -0.127085 0
9.560000 -0.133781 0
9.565000 -0.138938 0
9.570000 -0.142798 0
9.575000 -0.145581 0
9.580000 -0.145126 0
9.585000 -0.144123 0
9.590000 -0.143125 0
9.595000 -0.142131 0
9.600000 -0.141140 0
9.605000 -0.140151 0
9.610000 -0.139159 0
9.615000 -0.138158 0
9.620000 -0.137134 0
9.625000 -0.136065 0
9.630000 -0.134912 0
9.635000 -0.133611 0
9.640000 -0.132061 0
9.645000 -0.130110 0
9.650000 -0.127538 0
9.655000 -0.124040 0
9.660000 -0.119218 0
9.665000 -0.112576 0
9.670000 -0.103540 0
9.675000 -0.091498 0
9.680000 -0.075867 0
9.685000 -0.056190 0
9.690000 -0.032250 0
9.695000 -0.004191 0
9.700000 0.027383 0
9.705000 0.061349 0
9.710000 0.096081 0
9.715000 0.129540 0
9.720000 0.159461 0
9.725000 0.183597 0
9.730000 0.199994 0
9.735000 0.207253 1
9.740000 0.204731 0
9.745000 0.192630 0
9.750000 0.171974 0
9.755000 0.144465 0
9.760000 0.112238 0
9.765000 0.077537 0
9.770000 0.042258 0
9.775000 0.007247 0
9.780000 -0.028706 0
9.785000 -0.069590 0
9.790000 -0.120873 0
9.795000 -0.184387 0
9.800000 -0.250792 0
9.805000 -0.295555 2
9.810000 -0.283444 0
9.815000 -0.178934 0
9.820000 0.041891 0
9.825000 0.373806 0
9.830000 0.758066 0
9.835000 1.076778 0
9.840000 1.200000 3
9.845000 1.067352 0
9.850000 0.733429 0
9.855000 0.327336 0
9.860000 -0.028910 0
9.865000 -0.267670 0
9.870000 -0.373828 4
9.875000 -0.367274 0
9.880000 -0.289289 0
9.885000 -0.186957 0
9.890000 -0.094937 0
9.895000 -0.026333 0
9.900000 0.022277 0
9.905000 0.059859 0
9.910000 0.093523 0
9.915000 0.126781 0
9.920000 0.160629 0
9.925000 0.194874 0
9.930000 0.228861 0
9.935000 0.261761 0
9.940000 0.292682 0
9.945000 0.320718 0
9.950000 0.344998 0
9.955000 0.364729 0
9.960000 0.379239 0
9.965000 0.388013 0
9.970000 0.390723 5
9.975000 0.387249 0
9.980000 0.377684 0
9.985000 0.362330 0
9.990000 0.341685 0
9.995000 0.316409 0
10.000000 0.287293 0
10.005000 0.255218 0
10.010000 0.221105 0
10.015000 0.185879 0
10.020000 0.150421 0
10.025000 0.115537 0
10.030000 0.081930 0
10.035000 0.050181 0
10.040000 0.020737 0
10.045000 -0.006087 0
10.050000 -0.030108 0
10.055000 -0.051257 0
10.060000 -0.069568 0
10.065000 -0.085157 0
10.070000 -0.098202 0
10.075000 -0.108925 0
10.080000 -0.117575 0
10.085000 -0.124409 0
10.090000 -0.129684 0
10.095000 -0.133644 0
10.100000 -0.136512 0
10.105000 -0.136109 0
10.110000 -0.135151 0
10.115000 -0.134197 0
10.120000 -0.133248 0
10.125000 -0.132301 0
10.130000 -0.131356 0
10.135000 -0.130408 0
10.140000 -0.129451 0
10.145000 -0.128470 0
10.150000 -0.127444 0
10.155000 -0.126332 0
10.160000 -0.125071 0
10.165000 -0.123557 0
10.170000 -0.121635 0
10.175000 -0.119082 0
10.180000 -0.115586 0
10.185000 -0.110743 0
10.190000 -0.104047 0
10.195000 -0.094917 0
10.200000 -0.082735 0
10.205000 -0.066915 0
10.210000 -0.047008 0
10.215000 -0.022814 0
10.220000 0.005492 0
10.225000 0.037263 0
10.230000 0.071325 0
10.235000 0.105995 0
10.240000 0.139189 0
10.245000 0.168610 0
10.250000 0.192005 0
10.255000 0.207448 0
10.260000 0.213601 1
10.265000 0.209906 0
10.270000 0.196668 0
10.275000 0.175013 0
10.280000 0.146729 0
10.285000 0.114006 0
10.290000 0.079093 0
10.295000 0.043804 0
10.300000 0.008759 0
10.305000 -0.027665 0
10.310000 -0.069890 0
10.315000 -0.123299 0
10.320000 -0.188397 0
10.325000 -0.253237 0
10.330000 -0.290609 2
10.335000 -0.264062 0
10.340000 -0.138938 0
10.345000 0.105010 0
10.350000 0.453937 0
10.355000 0.835833 0
10.360000 1.123530 0
10.365000 1.193873 3
10.370000 1.008793 0
10.375000 0.646152 0
10.380000 0.242576 0
10.385000 -0.088719 0
10.390000 -0.293433 0
10.395000 -0.366829 4
10.400000 -0.336143 0
10.405000 -0.246826 0
10.410000 -0.144931 0
10.415000 -0.059605 0
10.420000 0.001904 0
10.425000 0.045967 0
10.430000 0.081611 0
10.435000 0.114853 0
10.440000 0.148237 0
10.445000 0.182235 0
10.450000 0.216428 0
10.455000 0.250066 0
10.460000 0.282271 0
10.465000 0.312125 0
10.470000 0.338713 0
10.475000 0.361175 0
10.480000 0.378748 0
10.485000 0.390811 0
10.490000 0.396918 5
10.495000 0.396826 0
10.500000 0.390510 0
10.505000 0.378162 0
10.510000 0.360186 0
10.515000 0.337170 0
10.520000 0.309857 0
10.525000 0.279102 0
10.530000 0.245829 0
10.535000 0.210982 0
10.540000 0.175485 0
10.545000 0.140200 0
10.550000 0.105892 0
10.555000 0.073213 0
10.560000 0.042677 0
10.565000 0.014664 0
10.570000 -0.010584 0
10.575000 -0.032950 0
10.580000 -0.052428 0
10.585000 -0.069105 0
10.590000 -0.083140 0
10.595000 -0.094744 0
10.600000 -0.104164 0
10.605000 -0.111658 0
10.610000 -0.117491 0
10.615000 -0.121914 0
10.620000 -0.125165 0
10.625000 -0.126991 0
10.630000 -0.126078 0
10.635000 -0.125170 0
10.640000 -0.124266 0
10.645000 -0.123365 0
10.650000 -0.122465 0
10.655000 -0.121564 0
10.660000 -0.120655 0
10.665000 -0.119727 0
10.670000 -0.118759 0
10.675000 -0.117715 0
10.680000 -0.116537 0
10.685000 -0.115129 0
10.690000 -0.113345 0
10.695000 -0.110973 0
10.700000 -0.107714 0
10.705000 -0.103170 0
10.710000 -0.096847 0
10.715000 -0.088160 0
10.720000 -0.076482 0
10.725000 -0.061208 0
10.730000 -0.041854 0
10.735000 -0.018180 0
10.740000 0.009686 0
10.745000 0.041136 0
10.750000 0.075028 0
10.755000 0.109688 0
10.760000 0.143019 0
10.765000 0.172690 0
10.770000 0.196396 0
10.775000 0.212154 0
10.780000 0.218573 1
10.785000 0.215059 0
10.790000 0.201904 0
10.795000 0.180244 0
10.800000 0.151898 0
10.805000 0.119097 0
10.810000 0.084127 0
10.815000 0.048815 0
10.820000 0.013730 0
10.825000 -0.022902 0
10.830000 -0.065713 0
10.835000 -0.120075 0
10.840000 -0.185829 0
10.845000 -0.249550 0
10.850000 -0.282338 2
10.855000 -0.246751 0
10.860000 -0.108419 0
10.865000 0.150426 0
10.870000 0.509388 0
10.875000 0.886267 0
10.880000 1.147292 0
10.885000 1.175762 3
10.890000 0.952146 0
10.895000 0.571791 0
10.900000 0.175097 0
10.905000 -0.132984 0
10.910000 -0.308757 0
10.915000 -0.355625 4
10.920000 -0.306804 0
10.925000 -0.210630 0
10.930000 -0.111196 0
10.935000 -0.032355 0
10.940000 0.023345 0
10.945000 0.064102 0
10.950000 0.098543 0
10.955000 0.131653 0
10.960000 0.165212 0
10.965000 0.199315 0
10.970000 0.233384 0
10.975000 0.266594 0
10.980000 0.298027 0
10.985000 0.326740 0
10.990000 0.351815 0
10.995000 0.372406 0
11.000000 0.387785 0
11.005000 0.397388 0
11.010000 0.400842 5
11.015000 0.397992 0
11.020000 0.388910 0
11.025000 0.373893 0
11.030000 0.353442 0
11.035000 0.328237 0
11.040000 0.299097 0
11.045000 0.266936 0
11.050000 0.232713 0
11.055000 0.197389 0
11.060000 0.161878 0
11.065000 0.127010 0
11.070000 0.093508 0
11.075000 0.061959 0
11.080000 0.032811 0
11.085000 0.006371 0
11.090000 -0.017190 0
11.095000 -0.037824 0
11.100000 -0.055585 0
11.105000 -0.070608 0
11.110000 -0.083094 0
11.115000 -0.093281 0
11.120000 -0.101433 0
11.125000 -0.107817 0
11.130000 -0.112698 0
11.135000 -0.116322 0
11.140000 -0.118913 0
11.145000 -0.118542 0
11.150000 -0.117671 0
11.155000 -0.116805 0
11.160000 -0.115942 0
11.165000 -0.115080 0
11.170000 -0.114217 0
11.175000 -0.113348 0
11.180000 -0.112463 0
11.185000 -0.111542 0
11.190000 -0.110553 0
11.195000 -0.109441 0
11.200000 -0.108115 0
11.205000 -0.106437 0
11.210000 -0.104201 0
11.215000 -0.101114 0
11.220000 -0.096787 0
11.225000 -0.090722 0
11.230000 -0.082334 0
11.235000 -0.070982 0
11.240000 -0.056042 0
11.245000 -0.037008 0
11.250000 -0.013612 0
11.255000 0.014038 0
11.260000 0.045349 0
11.265000 0.079171 0
11.270000 0.113809 0
11.275000 0.147126 0
11.280000 0.176741 0
11.285000 0.200303 0
11.290000 0.215792 0
11.295000 0.221811 1
11.300000 0.217786 0
11.305000 0.204059 0
11.310000 0.181839 0
11.315000 0.153024 0
11.320000 0.119910 0
11.325000 0.084813 0
11.330000 0.049510 0
11.335000 0.014361 0
11.340000 -0.022815 0
11.345000 -0.067059 0
11.350000 -0.123509 0
11.355000 -0.190323 0
11.360000 -0.251033 0
11.365000 -0.273830 2
11.370000 -0.220144 0
11.375000 -0.057036 0
11.380000 0.227571 0
11.385000 0.600400 0
11.390000 0.962210 0
11.395000 1.172475 3
11.400000 1.129814 0
11.405000 0.849119 0
11.410000 0.450182 0
11.415000 0.071741 0
11.420000 -0.197871 0
11.425000 -0.331010 0
11.430000 -0.342241 4
11.435000 -0.272137 0
11.440000 -0.170747 0
11.445000 -0.077078 0
11.450000 -0.007102 0
11.455000 0.041951 0
11.460000 0.079482 0
11.465000 0.113023 0
11.470000 0.146215 0
11.475000 0.180029 0
11.480000 0.214203 0
11.485000 0.248015 0
11.490000 0.280574 0
11.495000 0.310930 0
11.500000 0.338126 0
11.505000 0.361255 0
11.510000 0.379506 0
11.515000 0.392210 0
11.520000 0.398881 0
11.525000 0.399246 5
11.530000 0.393258 0
11.535000 0.381107 0
11.540000 0.363203 0
11.545000 0.340155 0
11.550000 0.312734 0
11.555000 0.281832 0
11.560000 0.248410 0
11.565000 0.213450 0
11.570000 0.177907 0
11.575000 0.142670 0
11.580000 0.108520 0
11.585000 0.076115 0
11.590000 0.045969 0
11.595000 0.018449 0
11.600000 -0.006218 0
11.605000 -0.027939 0
11.610000 -0.046730 0
11.615000 -0.062705 0
11.620000 -0.076045 0
11.625000 -0.086982 0
11.630000 -0.095777 0
11.635000 -0.102704 0
11.640000 -0.108034 0
11.645000 -0.112022 0
11.650000 -0.114906 0
11.655000 -0.114594 0
11.660000 -0.113743 0
11.665000 -0.112896 0
11.670000 -0.112053 0
11.675000 -0.111212 0
11.680000 -0.110370 0
11.685000 -0.109523 0
11.690000 -0.108663 0
11.695000 -0.107771 0
11.700000 -0.106819 0
11.705000 -0.105755 0
11.710000 -0.104496 0
11.715000 -0.102911 0
11.720000 -0.100802 0
11.725000 -0.097889 0
11.730000 -0.093790 0
11.735000 -0.088014 0
11.740000 -0.079977 0
11.745000 -0.069030 0
11.750000 -0.054533 0
11.755000 -0.035949 0
11.760000 -0.012977 0
11.765000 0.014317 0
11.770000 0.045371 0
11.775000 0.079061 0
11.780000 0.113695 0
11.785000 0.147122 0
11.790000 0.176924 0
11.795000 0.200701 0
11.800000 0.216384 0
11.805000 0.222533 1
11.810000 0.218552 0
11.815000 0.204784 0
11.820000 0.182463 0
11.825000 0.153525 0
11.830000 0.120312 0
11.835000 0.085172 0
11.840000 0.049873 0
11.845000 0.014683 0
11.850000 -0.022795 0
11.855000 -0.067828 0
11.860000 -0.125391 0
11.865000 -0.192598 0
11.870000 -0.251121 0
11.875000 -0.267390 2
11.880000 -0.202176 0
11.885000 -0.023567 0
11.890000 0.276375 0
11.895000 0.655263 0
11.900000 1.002899 0
11.905000 1.176503 3
11.910000 1.089395 0
11.915000 0.778188 0
11.920000 0.373739 0
11.925000 0.010375 0
11.930000 -0.234559 0
11.935000 -0.342551 4
11.940000 -0.334330 0
11.945000 -0.254144 0
11.950000 -0.151850 0
11.955000 -0.062532 0
11.960000 0.002411 0
11.965000 0.048192 0
11.970000 0.084357 0
11.975000 0.117640 0
11.980000 0.150967 0
11.985000 0.184927 0
11.990000 0.219105 0
11.995000 0.252716 0
12.000000 0.284841 0
12.005000 0.314513 0
12.010000 0.340777 0
12.015000 0.362737 0
12.020000 0.379607 0
12.025000 0.390758 0
12.030000 0.395754 5
12.035000 0.394381 0
12.040000 0.386657 0
12.045000 0.372838 0
12.050000 0.353397 0
12.055000 0.328999 0
12.060000 0.300464 0
12.065000 0.268714 0
12.070000 0.234733 0
12.075000 0.199508 0
12.080000 0.163984 0
12.085000 0.129028 0
12.090000 0.095389 0
12.095000 0.063687 0
12.100000 0.034390 0
12.105000 0.007821 0
12.110000 -0.015837 0
12.115000 -0.036531 0
12.120000 -0.054313 0
12.125000 -0.069324 0
12.130000 -0.081767 0
12.135000 -0.091890 0
12.140000 -0.099961 0
12.145000 -0.106257 0
12.150000 -0.111047 0
12.155000 -0.114583 0
12.160000 -0.116605 0
12.165000 -0.115744 0
12.170000 -0.114888 0
12.175000 -0.114035 0
12.180000 -0.113185 0
12.185000 -0.112336 0
12.190000 -0.111486 0
12.195000 -0.110628 0
12.200000 -0.109750 0
12.205000 -0.108830 0
12.210000 -0.107830 0
12.215000 -0.106688 0
12.220000 -0.105299 0
12.225000 -0.103505 0
12.230000 -0.101071 0
12.235000 -0.097672 0
12.240000 -0.092872 0
12.245000 -0.086131 0
12.250000 -0.076824 0
12.255000 -0.064290 0
12.260000 -0.047917 0
12.265000 -0.027258 0
12.270000 -0.002169 0
12.275000 0.027056 0
12.280000 0.059583 0
12.285000 0.093991 0
12.290000 0.128327 0
12.295000 0.160257 0
12.300000 0.187313 0
12.305000 0.207203 0
12.310000 0.218130 0
12.315000 0.219057 1
12.320000 0.209872 0
12.325000 0.191407 0
12.330000 0.165308 0
12.335000 0.133790 0
12.340000 0.099277 0
12.345000 0.063911 0
12.350000 0.028792 0
12.355000 -0.007154 0
12.360000 -0.048076 0
12.365000 -0.099820 0
12.370000 -0.164061 0
12.375000 -0.229660 0
12.380000 -0.268642 2
12.385000 -0.242335 0
12.390000 -0.113793 0
12.395000 0.137698 0
12.400000 0.493847 0
12.405000 0.871056 0
12.410000 1.129851 0
12.415000 1.149147 3
12.420000 0.914756 0
12.425000 0.529574 0
12.430000 0.136731 0
12.435000 -0.160893 0
12.440000 -0.323433 0
12.445000 -0.357932 4
12.450000 -0.300793 0
12.455000 -0.202013 0
12.460000 -0.104617 0
12.465000 -0.029572 0
12.470000 0.023013 0
12.475000 0.062153 0
12.480000 0.096125 0
12.485000 0.129304 0
12.490000 0.163050 0
12.495000 0.197257 0
12.500000 0.231252 0
12.505000 0.264160 0
12.510000 0.295032 0
12.515000 0.322904 0
12.520000 0.346851 0
12.525000 0.366037 0
12.530000 0.379762 0
12.535000 0.387504 0
12.540000 0.388951 5
12.545000 0.384021 0
12.550000 0.372865 0
12.555000 0.355863 0
12.560000 0.333598 0
12.565000 0.306823 0
12.570000 0.276419 0
12.575000 0.243346 0
12.580000 0.208593 0
12.585000 0.173125 0
12.590000 0.137845 0
12.595000 0.103559 0
12.600000 0.070943 0
12.605000 0.040534 0
12.610000 0.012719 0
12.615000 -0.012256 0
12.620000 -0.034282 0
12.625000 -0.053365 0
12.630000 -0.069606 0
12.635000 -0.083183 0
12.640000 -0.094324 0
12.645000 -0.103289 0
12.650000 -0.110353 0
12.655000 -0.115787 0
12.660000 -0.119854 0
12.665000 -0.122791 0
12.670000 -0.122453 0
12.675000 -0.121564 0
12.680000 -0.120678 0
12.685000 -0.119796 0
12.690000 -0.118916 0
12.695000 -0.118036 0
12.700000 -0.117152 0
12.705000 -0.116255 0
12.710000 -0.115329 0
12.715000 -0.114345 0
12.720000 -0.113253 0
12.725000 -0.111972 0
12.730000 -0.110374 0
12.735000 -0.108264 0
12.740000 -0.105365 0
12.745000 -0.101299 0
12.750000 -0.095580 0
12.755000 -0.087621 0
12.760000 -0.076773 0
12.765000 -0.062390 0
12.770000 -0.043926 0
12.775000 -0.021067 0
12.780000 0.006134 0
12.785000 0.037131 0
12.790000 0.070808 0
12.795000 0.105481 0
12.800000 0.138992 0
12.805000 0.168915 0
12.810000 0.192835 0
12.815000 0.208663 0
12.820000 0.214943 1
12.825000 0.211066 0
12.830000 0.197371 0
12.835000 0.175096 0
12.840000 0.146186 0
12.845000 0.112996 0
12.850000 0.077885 0
12.855000 0.042625 0
12.860000 0.007461 0
12.865000 -0.030056 0
12.870000 -0.075249 0
12.875000 -0.133051 0
12.880000 -0.200298 0
12.885000 -0.258157 0
12.890000 -0.272581 2
12.895000 -0.204162 0
12.900000 -0.021284 0
12.905000 0.282765 0
12.910000 0.662951 0
12.915000 1.006052 0
12.920000 1.168989 3
12.925000 1.071302 0
12.930000 0.754823 0
12.935000 0.349936 0
12.940000 -0.012055 0
12.945000 -0.256073 0
12.950000 -0.364264 4
12.955000 -0.356967 0
12.960000 -0.277548 0
12.965000 -0.175161 0
12.970000 -0.084922 0
12.975000 -0.018824 0
12.980000 0.027822 0
12.985000 0.064430 0
12.990000 0.097868 0
12.995000 0.131234 0
13.000000 0.165231 0
13.005000 0.199502 0
13.010000 0.233295 0
13.015000 0.265715 0
13.020000 0.295815 0
13.025000 0.322652 0
13.030000 0.345334 0
13.035000 0.363072 0
13.040000 0.375222 0
13.045000 0.381323 5
13.050000 0.381128 0
13.055000 0.374616 0
13.060000 0.361996 0
13.065000 0.343695 0
13.070000 0.320332 0
13.075000 0.292685 0
13.080000 0.261645 0
13.085000 0.228167 0
13.090000 0.193227 0
13.095000 0.157768 0
13.100000 0.122664 0
13.105000 0.088685 0
13.110000 0.056474 0
13.115000 0.026534 0
13.120000 -0.000778 0
13.125000 -0.025243 0
13.130000 -0.046772 0
13.135000 -0.065388 0
13.140000 -0.081202 0
13.145000 -0.094397 0
13.150000 -0.105206 0
13.155000 -0.113885 0
13.160000 -0.120708 0
13.165000 -0.125941 0
13.170000 -0.129840 0
13.175000 -0.132639 0
13.180000 -0.132240 0
13.185000 -0.131301 0
13.190000 -0.130367 0
13.195000 -0.129436 0
13.200000 -0.128508 0
13.205000 -0.127580 0
13.210000 -0.126648 0
13.215000 -0.125703 0
13.220000 -0.124729 0
13.225000 -0.123696 0
13.230000 -0.122556 0
13.235000 -0.121227 0
13.240000 -0.119583 0
13.245000 -0.117433 0
13.250000 -0.114503 0
13.255000 -0.110423 0
13.260000 -0.104714 0
13.265000 -0.096802 0
13.270000 -0.086049 0
13.275000 -0.071813 0
13.280000 -0.053549 0
13.285000 -0.030932 0
13.290000 -0.003985 0
13.295000 0.026790 0
13.300000 0.060337 0
13.305000 0.095040 0
13.310000 0.128807 0
13.315000 0.159260 0
13.320000 0.184001 0
13.325000 0.200918 0
13.330000 0.208487 1
13.335000 0.205994 0
13.340000 0.193651 0
13.345000 0.172560 0
13.350000 0.144555 0
13.355000 0.111921 0
13.360000 0.077016 0
13.365000 0.041741 0
13.370000 0.006685 0
13.375000 -0.030010 0
13.380000 -0.073172 0
13.385000 -0.128238 0
13.390000 -0.194442 0
13.395000 -0.256776 0
13.400000 -0.284318 2
13.405000 -0.238269 0
13.410000 -0.084438 0
13.415000 0.191726 0
13.420000 0.560932 0
13.425000 0.927576 0
13.430000 1.150569 3
13.435000 1.125993 0
13.440000 0.861117 0
13.445000 0.467046 0
13.450000 0.080827 0
13.455000 -0.204850 0
13.460000 -0.356696 0
13.465000 -0.384289 4
13.470000 -0.324122 0
13.475000 -0.224727 0
13.480000 -0.127320 0
13.485000 -0.051948 0
13.490000 0.001207 0
13.495000 0.040816 0
13.500000 0.075026 0
13.505000 0.108279 0
13.510000 0.142052 0
13.515000 0.176322 0
13.520000 0.210474 0
13.525000 0.243680 0
13.530000 0.275026 0
13.535000 0.303582 0
13.540000 0.328443 0
13.545000 0.348781 0
13.550000 0.363889 0
13.555000 0.373220 0
13.560000 0.376420 5
13.565000 0.373349 0
13.570000 0.364093 0
13.575000 0.348952 0
13.580000 0.328432 0
13.585000 0.303211 0
13.590000 0.274102 0
13.595000 0.242012 0
13.600000 0.207889 0
13.605000 0.172681 0
13.610000 0.137293 0
13.615000 0.102545 0
13.620000 0.069151 0
13.625000 0.037694 0
13.630000 0.008619 0
13.635000 -0.017770 0
13.640000 -0.041300 0
13.645000 -0.061918 0
13.650000 -0.079675 0
13.655000 -0.094704 0
13.660000 -0.107198 0
13.665000 -0.117393 0
13.670000 -0.125547 0
13.675000 -0.131926 0
13.680000 -0.136792 0
13.685000 -0.140389 0
13.690000 -0.142942 0
13.695000 -0.142463 0
13.700000 -0.141474 0
13.705000 -0.140489 0
13.710000 -0.139507 0
13.715000 -0.138529 0
13.720000 -0.137550 0
13.725000 -0.136567 0
13.730000 -0.135569 0
13.735000 -0.134540 0
13.740000 -0.133450 0
13.745000 -0.132247 0
13.750000 -0.130850 0
13.755000 -0.129130 0
13.760000 -0.126894 0
13.765000 -0.123871 0
13.770000 -0.119691 0
13.775000 -0.113882 0
13.780000 -0.105880 0
13.785000 -0.095057 0
13.790000 -0.080787 0
13.795000 -0.062535 0
13.800000 -0.039977 0
13.805000 -0.013128 0
13.810000 0.017538 0
13.815000 0.051011 0
13.820000 0.085735 0
13.825000 0.119687 0
13.830000 0.150549 0
13.835000 0.175960 0
13.840000 0.193813 0
13.845000 0.202541 1
13.850000 0.201346 0
13.855000 0.190320 0
13.860000 0.170433 0
13.865000 0.143392 0
13.870000 0.111390 0
13.875000 0.076757 0
13.880000 0.041485 0
13.885000 0.006477 0
13.890000 -0.029531 0
13.895000 -0.070725 0
13.900000 -0.122739 0
13.905000 -0.186984 0
13.910000 -0.252593 0
13.915000 -0.292722 2
13.920000 -0.270208 0
13.925000 -0.149066 0
13.930000 0.092284 0
13.935000 0.440560 0
13.940000 0.822218 0
13.945000 1.106467 0
13.950000 1.167996 3
13.955000 0.974794 0
13.960000 0.608970 0
13.965000 0.206102 0
13.970000 -0.123045 0
13.975000 -0.325869 0
13.980000 -0.398217 4
13.985000 -0.367222 0
13.990000 -0.277867 0
13.995000 -0.175753 0
14.000000 -0.089921 0
14.005000 -0.027812 0
14.010000 0.016727 0
14.015000 0.052664 0
14.020000 0.086070 0
14.025000 0.119564 0
14.030000 0.153673 0
14.035000 0.188006 0
14.040000 0.221833 0
14.045000 0.254292 0
14.050000 0.284473 0
14.055000 0.311472 0
14.060000 0.334432 0
14.065000 0.352589 0
14.070000 0.365315 0
14.075000 0.372153 0
14.080000 0.372840 5
14.085000 0.367329 0
14.090000 0.355788 0
14.095000 0.338591 0
14.100000 0.316301 0
14.105000 0.289634 0
14.110000 0.259423 0
14.115000 0.226576 0
14.120000 0.192027 0
14.125000 0.156694 0
14.130000 0.121442 0
14.135000 0.087045 0
14.140000 0.054166 0
14.145000 0.023340 0
14.150000 -0.005036 0
14.155000 -0.030697 0
14.160000 -0.053506 0
14.165000 -0.073435 0
14.170000 -0.090555 0
14.175000 -0.105011 0
14.180000 -0.117001 0
14.185000 -0.126763 0
14.190000 -0.134552 0
14.195000 -0.140629 0
14.200000 -0.145247 0
14.205000 -0.148644 0
14.210000 -0.150538 0
14.215000 -0.149508 0
14.220000 -0.148483 0
14.225000 -0.147463 0
14.230000 -0.146447 0
14.235000 -0.145433 0
14.240000 -0.144420 0
14.245000 -0.143401 0
14.250000 -0.142368 0
14.255000 -0.141304 0
14.260000 -0.140178 0
14.265000 -0.138939 0
14.270000 -0.137508 0
14.275000 -0.135757 0
14.280000 -0.133499 0
14.285000 -0.130469 0
14.290000 -0.126307 0
14.295000 -0.120557 0
14.300000 -0.112669 0
14.305000 -0.102030 0
14.310000 -0.088025 0
14.315000 -0.070118 0
14.320000 -0.047970 0
14.325000 -0.021555 0
14.330000 0.008717 0
14.335000 0.041922 0
14.340000 0.076605 0
14.345000 0.110841 0
14.350000 0.142390 0
14.355000 0.168928 0
14.360000 0.188326 0
14.365000 0.198933 0
14.370000 0.199810 1
14.375000 0.190864 0
14.380000 0.172867 0
14.385000 0.147348 0
14.390000 0.116368 0
14.395000 0.082215 0
14.400000 0.046983 0
14.405000 0.011935 0
14.410000 -0.023458 0
14.415000 -0.062473 0
14.420000 -0.110594 0
14.425000 -0.171337 0
14.430000 -0.238692 0
14.435000 -0.291397 0
14.440000 -0.295368 2
14.445000 -0.213566 0
14.450000 -0.017949 0
14.455000 0.294309 0
14.460000 0.676072 0
14.465000 1.017316 0
14.470000 1.182306 3
14.475000 1.093818 0
14.480000 0.787547 0
14.485000 0.384396 0
14.490000 0.011931 0
14.495000 -0.251677 0
14.500000 -0.382864 0
14.505000 -0.395791 4
14.510000 -0.328265 0
14.515000 -0.227369 0
14.520000 -0.131264 0
14.525000 -0.057442 0
14.530000 -0.005113 0
14.535000 0.034264 0
14.540000 0.068473 0
14.545000 0.101756 0
14.550000 0.135541 0
14.555000 0.169826 0
14.560000 0.204031 0
14.565000 0.237362 0
14.570000 0.268944 0
14.575000 0.297876 0
14.580000 0.323282 0
14.585000 0.344350 0
14.590000 0.360379 0
14.595000 0.370813 0
14.600000 0.375276 5
14.605000 0.373589 0
14.610000 0.365788 0
14.615000 0.352116 0
14.620000 0.333011 0
14.625000 0.309088 0
14.630000 0.281098 0
14.635000 0.249891 0
14.640000 0.216375 0
14.645000 0.181472 0
14.650000 0.146072 0
14.655000 0.111003 0
14.660000 0.076996 0
14.665000 0.044668 0
14.670000 0.014506 0
14.675000 -0.013135 0
14.680000 -0.038031 0
14.685000 -0.060077 0
14.690000 -0.079274 0
14.695000 -0.095712 0
14.700000 -0.109548 0
14.705000 -0.120989 0
14.710000 -0.130275 0
14.715000 -0.137660 0
14.720000 -0.143400 0
14.725000 -0.147743 0
14.730000 -0.150918 0
14.735000 -0.152660 0
14.740000 -0.151620 0
14.745000 -0.150584 0
14.750000 -0.149553 0
14.755000 -0.148526 0
14.760000 -0.147502 0
14.765000 -0.146477 0
14.770000 -0.145446 0
14.775000 -0.144399 0
14.780000 -0.143319 0
14.785000 -0.142172 0
14.790000 -0.140907 0
14.795000 -0.139439 0
14.800000 -0.137640 0
14.805000 -0.135318 0
14.810000 -0.132203 0
14.815000 -0.127936 0
14.820000 -0.122059 0
14.825000 -0.114024 0
14.830000 -0.103227 0
14.835000 -0.089062 0
14.840000 -0.071008 0
14.845000 -0.048738 0
14.850000 -0.022238 0
14.855000 0.008080 0
14.860000 0.041300 0
14.865000 0.075985 0
14.870000 0.110240 0
14.875000 0.141858 0
14.880000 0.168549 0
14.885000 0.188208 0
14.890000 0.199187 0
14.895000 0.200529 1
14.900000 0.192103 0
14.905000 0.174627 0
14.910000 0.149565 0
14.915000 0.118922 0
14.920000 0.084949 0
14.925000 0.049745 0
14.930000 0.014669 0
14.935000 -0.020577 0
14.940000 -0.058918 0
14.945000 -0.105638 0
14.950000 -0.164811 0
14.955000 -0.232158 0
14.960000 -0.288840 0
14.965000 -0.302574 2
14.970000 -0.236551 0
14.975000 -0.060862 0
14.980000 0.232935 0
14.985000 0.608658 0
14.990000 0.968100 0
14.995000 1.176584 3
15.000000 1.139591 0
15.005000 0.869241 0
15.010000 0.474501 0
15.015000 0.087275 0
15.020000 -0.202573 0
15.025000 -0.361488 0
15.030000 -0.397020 4
15.035000 -0.342855 0
15.040000 -0.245393 0
15.045000 -0.145986 0
15.050000 -0.066837 0
15.055000 -0.010379 0
15.060000 0.031099 0
15.065000 0.065955 0
15.070000 0.099220 0
15.075000 0.132830 0
15.080000 0.167012 0
15.085000 0.201276 0
15.090000 0.234866 0
15.095000 0.266922 0
15.100000 0.296551 0
15.105000 0.322868 0
15.110000 0.345047 0
15.115000 0.362358 0
15.120000 0.374209 0
15.125000 0.380177 5
15.130000 0.380034 0
15.135000 0.373760 0
15.140000 0.361545 0
15.145000 0.343779 0
15.150000 0.321029 0
15.155000 0.294011 0
15.160000 0.263551 0
15.165000 0.230542 0
15.170000 0.195900 0
15.175000 0.160527 0
15.180000 0.125265 0
15.185000 0.090873 0
15.190000 0.057998 0
15.195000 0.027162 0
15.200000 -0.001246 0
15.205000 -0.026964 0
15.210000 -0.049856 0
15.215000 -0.069895 0
15.220000 -0.087147 0
15.225000 -0.101749 0
15.230000 -0.113897 0
15.235000 -0.123820 0
15.240000 -0.131769 0
15.245000 -0.138000 0
15.250000 -0.142762 0
15.255000 -0.146291 0
15.260000 -0.148802 0
15.265000 -0.148294 0
15.270000 -0.147275 0
15.275000 -0.146261 0
15.280000 -0.145251 0
15.285000 -0.144244 0
15.290000 -0.143237 0
15.295000 -0.142227 0
15.300000 -0.141205 0
15.305000 -0.140155 0
15.310000 -0.139053 0
15.315000 -0.137852 0
15.320000 -0.136482 0
15.325000 -0.134829 0
15.330000 -0.132727 0
15.335000 -0.129936 0
15.340000 -0.126128 0
15.345000 -0.120881 0
15.350000 -0.113678 0
15.355000 -0.103933 0
15.360000 -0.091035 0
15.365000 -0.074423 0
15.370000 -0.053690 0
15.375000 -0.028696 0
15.380000 0.000309 0
15.385000 0.032600 0
15.390000 0.066932 0
15.395000 0.101570 0
15.400000 0.134408 0
15.405000 0.163166 0
15.410000 0.185647 0
15.415000 0.200010 0
15.420000 0.205023 1
15.425000 0.200237 0
15.430000 0.186052 0
15.435000 0.163662 0
15.440000 0.134888 0
15.445000 0.101918 0
15.450000 0.066956 0
15.455000 0.031733 0
15.460000 -0.003276 0
15.465000 -0.039872 0
15.470000 -0.082590 0
15.475000 -0.136665 0
15.480000 -0.202114 0
15.485000 -0.266387 0
15.490000 -0.302012 2
15.495000 -0.272819 0
15.500000 -0.144791 0
15.505000 0.101532 0
15.510000 0.451598 0
15.515000 0.833402 0
15.520000 1.120951 0
15.525000 1.192499 3
15.530000 1.010656 0
15.535000 0.650785 0
15.540000 0.246326 0
15.545000 -0.090137 0
15.550000 -0.302806 0
15.555000 -0.384761 4
15.560000 -0.360906 0
15.565000 -0.274832 0
15.570000 -0.172381 0
15.575000 -0.084297 0
15.580000 -0.019877 0
15.585000 0.026097 0
15.590000 0.062587 0
15.595000 0.096033 0
15.600000 0.129384 0
15.605000 0.163349 0
15.610000 0.197618 0
15.615000 0.231499 0
15.620000 0.264152 0
15.625000 0.294681 0
15.630000 0.322189 0
15.635000 0.345817 0
15.640000 0.364792 0
15.645000 0.378467 0
15.650000 0.386357 0
15.655000 0.388166 5
15.660000 0.383804 0
15.665000 0.373396 0
15.670000 0.357272 0
15.675000 0.335951 0
15.680000 0.310113 0
15.685000 0.280559 0
15.690000 0.248173 0
15.695000 0.213877 0
15.700000 0.178587 0
15.705000 0.143172 0
15.710000 0.108425 0
15.715000 0.075029 0
15.720000 0.043548 0
15.725000 0.014412 0
15.730000 -0.012084 0
15.735000 -0.035768 0
15.740000 -0.056586 0
15.745000 -0.074582 0
15.750000 -0.089877 0
15.755000 -0.102655 0
15.760000 -0.113141 0
15.765000 -0.121584 0
15.770000 -0.128241 0
15.775000 -0.133366 0
15.780000 -0.137200 0
15.785000 -0.139964 0
15.790000 -0.139531 0
15.795000 -0.138556 0
15.800000 -0.137586 0
15.805000 -0.136619 0
15.810000 -0.135656 0
15.815000 -0.134693 0
15.820000 -0.133728 0
15.825000 -0.132752 0
15.830000 -0.131753 0
15.835000 -0.130706 0
15.840000 -0.129570 0
15.845000 -0.128280 0
15.850000 -0.126730 0
15.855000 -0.124762 0
15.860000 -0.122149 0
15.865000 -0.118577 0
15.870000 -0.113635 0
15.875000 -0.106819 0
15.880000 -0.097545 0
15.885000 -0.085197 0
15.890000 -0.069198 0
15.895000 -0.049107 0
15.900000 -0.024738 0
15.905000 0.003720 0
15.910000 0.035603 0
15.915000 0.069725 0
15.920000 0.104397 0
15.925000 0.137534 0
15.930000 0.166848 0
15.935000 0.190100 0
15.940000 0.205383 0
15.945000 0.211379 1
15.950000 0.207546 0
15.955000 0.194202 0
15.960000 0.172478 0
15.965000 0.144158 0
15.970000 0.111427 0
15.975000 0.076521 0
15.980000 0.041245 0
15.985000 0.006213 0
15.990000 -0.030187 0
15.995000 -0.072353 0
16.000000 -0.125651 0
16.005000 -0.190656 0
16.010000 -0.255621 0
16.015000 -0.293621 2
16.020000 -0.268419 0
16.025000 -0.145384 0
16.030000 0.096063 0
16.035000 0.443133 0
16.040000 0.825639 0
16.045000 1.117858 0
16.050000 1.195852 3
16.055000 1.018420 0
16.060000 0.659830 0
16.065000 0.255362 0
16.070000 -0.080508 0
16.075000 -0.291370 0
16.080000 -0.370711 4
16.085000 -0.344373 0
16.090000 -0.256972 0
16.095000 -0.154760 0
16.100000 -0.067980 0
16.105000 -0.005020 0
16.110000 0.039943 0
16.115000 0.075956 0
16.120000 0.109269 0
16.125000 0.142622 0
16.130000 0.176594 0
16.135000 0.210811 0
16.140000 0.244544 0
16.145000 0.276930 0
16.150000 0.307056 0
16.155000 0.334012 0
16.160000 0.356936 0
16.165000 0.375058 0
16.170000 0.387744 0
16.175000 0.394533 0
16.180000 0.395159 5
16.185000 0.389572 0
16.190000 0.377939 0
16.195000 0.360637 0
16.200000 0.338229 0
16.205000 0.311437 0
16.210000 0.281097 0
16.215000 0.248122 0
16.220000 0.213450 0
16.225000 0.178003 0
16.230000 0.142650 0
16.235000 0.108166 0
16.240000 0.075217 0
16.245000 0.044334 0
16.250000 0.015917 0
16.255000 -0.009774 0
16.260000 -0.032603 0
16.265000 -0.052546 0
16.270000 -0.069677 0
16.275000 -0.084143 0
16.280000 -0.096146 0
16.285000 -0.105925 0
16.290000 -0.113737 0
16.295000 -0.119845 0
16.300000 -0.124502 0
16.305000 -0.127946 0
16.310000 -0.129902 0
16.315000 -0.128975 0
16.320000 -0.128053 0
16.325000 -0.127135 0
16.330000 -0.126220 0
16.335000 -0.125307 0
16.340000 -0.124393 0
16.345000 -0.123473 0
16.350000 -0.122538 0
16.355000 -0.121568 0
16.360000 -0.120533 0
16.365000 -0.119381 0
16.370000 -0.118025 0
16.375000 -0.116335 0
16.380000 -0.114117 0
16.385000 -0.111096 0
16.390000 -0.106902 0
16.395000 -0.101067 0
16.400000 -0.093031 0
16.405000 -0.082175 0
16.410000 -0.067884 0
16.415000 -0.049635 0
16.420000 -0.027114 0
16.425000 -0.000337 0
16.430000 0.030230 0
16.435000 0.063600 0
16.440000 0.098249 0
16.445000 0.132198 0
16.450000 0.163173 0
16.455000 0.188845 0
16.460000 0.207122 0
16.465000 0.216423 1
16.470000 0.215909 0
16.475000 0.205604 0
16.480000 0.186393 0
16.485000 0.159901 0
16.490000 0.128251 0
16.495000 0.093743 0
16.500000 0.058406 0
16.505000 0.023316 0
16.510000 -0.012424 0
16.515000 -0.052543 0
16.520000 -0.102626 0
16.525000 -0.165251 0
16.530000 -0.232180 0
16.535000 -0.279566 2
16.540000 -0.271896 0
16.545000 -0.172601 0
16.550000 0.043617 0
16.555000 0.372923 0
16.560000 0.757010 0
16.565000 1.076339 0
16.570000 1.198251 3
16.575000 1.060956 0
16.580000 0.722320 0
16.585000 0.316299 0
16.590000 -0.033575 0
16.595000 -0.261521 0
16.600000 -0.355479 4
16.605000 -0.338640 0
16.610000 -0.255123 0
16.615000 -0.152761 0
16.620000 -0.064274 0
16.625000 0.000180 0
16.630000 0.045901 0
16.635000 0.082139 0
16.640000 0.115452 0
16.645000 0.148753 0
16.650000 0.182680 0
16.655000 0.216865 0
16.660000 0.250567 0
16.665000 0.282906 0
16.670000 0.312951 0
16.675000 0.339774 0
16.680000 0.362499 0
16.685000 0.380344 0
16.690000 0.392673 0
16.695000 0.399024 0
16.700000 0.399142 5
16.705000 0.392991 0
16.710000 0.380763 0
16.715000 0.362860 0
16.720000 0.339876 0
16.725000 0.312561 0
16.730000 0.281781 0
16.735000 0.248472 0
16.740000 0.213591 0
16.745000 0.178073 0
16.750000 0.142789 0
16.755000 0.108511 0
16.760000 0.075893 0
16.765000 0.045453 0
16.770000 0.017567 0
16.775000 -0.007526 0
16.780000 -0.029716 0
16.785000 -0.049003 0
16.790000 -0.065481 0
16.795000 -0.079317 0
16.800000 -0.090729 0
16.805000 -0.099967 0
16.810000 -0.107295 0
16.815000 -0.112980 0
16.820000 -0.117275 0
16.825000 -0.120418 0
16.830000 -0.122173 0
16.835000 -0.121284 0
16.840000 -0.120400 0
16.845000 -0.119519 0
16.850000 -0.118642 0
16.855000 -0.117765 0
16.860000 -0.116886 0
16.865000 -0.115997 0
16.870000 -0.115085 0
16.875000 -0.114128 0
16.880000 -0.113086 0
16.885000 -0.111891 0
16.890000 -0.110440 0
16.895000 -0.108570 0
16.900000 -0.106049 0
16.905000 -0.102552 0
16.910000 -0.097655 0
16.915000 -0.090831 0
16.920000 -0.081474 0
16.925000 -0.068945 0
16.930000 -0.052652 0
16.935000 -0.032159 0
16.940000 -0.007311 0
16.945000 0.021637 0
16.950000 0.053921 0
16.955000 0.088221 0
16.960000 0.122700 0
16.965000 0.155139 0
16.970000 0.183153 0
16.975000 0.204479 0
16.980000 0.217273 0
16.985000 0.220374 1
16.990000 0.213478 0
16.995000 0.197182 0
17.000000 0.172904 0
17.005000 0.142670 0
17.010000 0.108805 0
17.015000 0.073526 0
17.020000 0.038322 0
17.025000 0.002993 0
17.030000 -0.035409 0
17.035000 -0.082348 0
17.040000 -0.141981 0
17.045000 -0.209470 0
17.050000 -0.264464 0
17.055000 -0.272775 2
17.060000 -0.196325 0
17.065000 -0.005612 0
17.070000 0.303649 0
17.075000 0.684846 0
17.080000 1.026227 0
17.085000 1.188969 3
17.090000 1.092395 0
17.095000 0.776648 0
17.100000 0.371751 0
17.105000 0.009097 0
17.110000 -0.235917 0
17.115000 -0.345141 4
17.120000 -0.338678 0
17.125000 -0.259735 0
17.130000 -0.157456 0
17.135000 -0.067109 0
17.140000 -0.000875 0
17.145000 0.045828 0
17.150000 0.082408 0
17.155000 0.115766 0
17.160000 0.149035 0
17.165000 0.182935 0
17.170000 0.217115 0
17.175000 0.250830 0
17.180000 0.283186 0
17.185000 0.313236 0
17.190000 0.340039 0
17.195000 0.362702 0
17.200000 0.380435 0
17.205000 0.392592 0
17.210000 0.398710 5
17.215000 0.398537 0
17.220000 0.392050 0
17.225000 0.379452 0
17.230000 0.361167 0
17.235000 0.337809 0
17.240000 0.310154 0
17.245000 0.279089 0
17.250000 0.245568 0
17.255000 0.210566 0
17.260000 0.175026 0
17.265000 0.139823 0
17.270000 0.105729 0
17.275000 0.073389 0
17.280000 0.043309 0
17.285000 0.015851 0
17.290000 -0.008766 0
17.295000 -0.030449 0
17.300000 -0.049217 0
17.305000 -0.065181 0
17.310000 -0.078522 0
17.315000 -0.089470 0
17.320000 -0.098282 0
17.325000 -0.105230 0
17.330000 -0.110582 0
17.335000 -0.114593 0
17.340000 -0.117497 0
17.345000 -0.117178 0
17.350000 -0.116314 0
17.355000 -0.115454 0
17.360000 -0.114598 0
17.365000 -0.113744 0
17.370000 -0.112890 0
17.375000 -0.112032 0
17.380000 -0.111161 0
17.385000 -0.110260 0
17.390000 -0.109302 0
17.395000 -0.108239 0
17.400000 -0.106991 0
17.405000 -0.105432 0
17.410000 -0.103376 0
17.415000 -0.100552 0
17.420000 -0.096594 0
17.425000 -0.091027 0
17.430000 -0.083283 0
17.435000 -0.072722 0
17.440000 -0.058706 0
17.445000 -0.040682 0
17.450000 -0.018313 0
17.455000 0.008393 0
17.460000 0.038957 0
17.465000 0.072348 0
17.470000 0.106974 0
17.475000 0.140763 0
17.480000 0.171347 0
17.485000 0.196322 0
17.490000 0.213563 0
17.495000 0.221512 1
17.500000 0.219419 0
17.505000 0.207449 0
17.510000 0.186668 0
17.515000 0.158877 0
17.520000 0.126345 0
17.525000 0.091437 0
17.530000 0.056087 0
17.535000 0.020977 0
17.540000 -0.015606 0
17.545000 -0.058358 0
17.550000 -0.112808 0
17.555000 -0.178722 0
17.560000 -0.241962 0
17.565000 -0.272337 2
17.570000 -0.231200 0
17.575000 -0.083818 0
17.580000 0.185910 0
17.585000 0.551825 0
17.590000 0.922078 0
17.595000 1.156525 3
17.600000 1.144259 0
17.605000 0.885884 0
17.610000 0.492953 0
17.615000 0.106484 0
17.620000 -0.177964 0
17.625000 -0.326633 0
17.630000 -0.350174 4
17.635000 -0.286877 0
17.640000 -0.186712 0
17.645000 -0.090849 0
17.650000 -0.017985 0
17.655000 0.033069 0
17.660000 0.071503 0
17.665000 0.105274 0
17.670000 0.138440 0
17.675000 0.172199 0
17.680000 0.206382 0
17.685000 0.240300 0
17.690000 0.273076 0
17.695000 0.303764 0
17.700000 0.331405 0
17.705000 0.355086 0
17.710000 0.373980 0
17.715000 0.387401 0
17.720000 0.394838 0
17.725000 0.395991 5
17.730000 0.390788 0
17.735000 0.379388 0
17.740000 0.362175 0
17.745000 0.339736 0
17.750000 0.312824 0
17.755000 0.282317 0
17.760000 0.249170 0
17.765000 0.214365 0
17.770000 0.178862 0
17.775000 0.143559 0
17.780000 0.109252 0
17.785000 0.076615 0
17.790000 0.046180 0
17.795000 0.018332 0
17.800000 -0.006686 0
17.805000 -0.028763 0
17.810000 -0.047904 0
17.815000 -0.064211 0
17.820000 -0.077857 0
17.825000 -0.089070 0
17.830000 -0.098108 0
17.835000 -0.105242 0
17.840000 -0.110746 0
17.845000 -0.114877 0
17.850000 -0.117874 0
17.855000 -0.117567 0
17.860000 -0.116701 0
17.865000 -0.115840 0
17.870000 -0.114982 0
17.875000 -0.114126 0
17.880000 -0.113271 0
17.885000 -0.112411 0
17.890000 -0.111539 0
17.895000 -0.110640 0
17.900000 -0.109684 0
17.905000 -0.108625 0
17.910000 -0.107385 0
17.915000 -0.105840 0
17.920000 -0.103802 0
17.925000 -0.101003 0
17.930000 -0.097076 0
17.935000 -0.091546 0
17.940000 -0.083838 0
17.945000 -0.073311 0
17.950000 -0.059317 0
17.955000 -0.041301 0
17.960000 -0.018920 0
17.965000 0.007817 0
17.970000 0.038422 0
17.975000 0.071850 0
17.980000 0.106486 0
17.985000 0.140232 0
17.990000 0.170694 0
17.995000 0.195453 0
18.000000 0.212376 0
18.005000 0.219921 1
18.010000 0.217367 0
18.015000 0.204925 0
18.020000 0.183711 0
18.025000 0.155579 0
18.030000 0.122833 0
18.035000 0.087847 0
18.040000 0.052520 0
18.045000 0.017398 0
18.050000 -0.019476 0
18.055000 -0.063045 0
18.060000 -0.118700 0
18.065000 -0.185230 0
18.070000 -0.246765 0
18.075000 -0.271519 2
18.080000 -0.220322 0
18.085000 -0.059377 0
18.090000 0.224123 0
18.095000 0.596849 0
18.100000 0.957978 0
18.105000 1.164724 3
18.110000 1.117196 0
18.115000 0.833192 0
18.120000 0.433555 0
18.125000 0.056431 0
18.130000 -0.211014 0
18.135000 -0.342012 0
18.140000 -0.351626 4
18.145000 -0.280667 0
18.150000 -0.179114 0
18.155000 -0.085658 0
18.160000 -0.015945 0
18.165000 0.032958 0
18.170000 0.070454 0
18.175000 0.104024 0
18.180000 0.137268 0
18.185000 0.171134 0
18.190000 0.205354 0
18.195000 0.239205 0
18.200000 0.271795 0
18.205000 0.302175 0
18.210000 0.329390 0
18.215000 0.352535 0
18.220000 0.370799 0
18.225000 0.383516 0
18.230000 0.390200 0
18.235000 0.390581 5
18.240000 0.384613 0
18.245000 0.372486 0
18.250000 0.354611 0
18.255000 0.331596 0
18.260000 0.304212 0
18.265000 0.273350 0
18.270000 0.239969 0
18.275000 0.205052 0
18.280000 0.169552 0
18.285000 0.134355 0
18.290000 0.100244 0
18.295000 0.067876 0
18.300000 0.037763 0
18.305000 0.010275 0
18.310000 -0.014363 0
18.315000 -0.036057 0
18.320000 -0.054823 0
18.325000 -0.070773 0
18.330000 -0.084088 0
18.335000 -0.095001 0
18.340000 -0.103771 0
18.345000 -0.110672 0
18.350000 -0.115974 0
18.355000 -0.119934 0
18.360000 -0.122788 0
18.365000 -0.122438 0
18.370000 -0.121549 0
18.375000 -0.120663 0
18.380000 -0.119781 0
18.385000 -0.118901 0
18.390000 -0.118021 0
18.395000 -0.117136 0
18.400000 -0.116238 0
18.405000 -0.115309 0
18.410000 -0.114321 0
18.415000 -0.113222 0
18.420000 -0.111930 0
18.425000 -0.110315 0
18.430000 -0.108181 0
18.435000 -0.105249 0
18.440000 -0.101140 0
18.445000 -0.095366 0
18.450000 -0.087345 0
18.455000 -0.076429 0
18.460000 -0.061977 0
18.465000 -0.043451 0
18.470000 -0.020542 0
18.475000 0.006692 0
18.480000 0.037703 0
18.485000 0.071382 0
18.490000 0.106051 0
18.495000 0.139571 0
18.500000 0.169531 0
18.505000 0.193528 0
18.510000 0.209483 0
18.515000 0.215938 1
18.520000 0.212272 0
18.525000 0.198803 0
18.530000 0.176738 0
18.535000 0.147996 0
18.540000 0.114908 0
18.545000 0.079828 0
18.550000 0.044552 0
18.555000 0.009410 0
18.560000 -0.027891 0
18.565000 -0.072545 0
18.570000 -0.129633 0
18.575000 -0.196682 0
18.580000 -0.255969 0
18.585000 -0.274368 2
18.590000 -0.212678 0
18.595000 -0.038515 0
18.600000 0.257330 0
18.605000 0.634876 0
18.610000 0.986386 0
18.615000 1.169014 3
18.620000 1.093781 0
18.625000 0.791738 0
18.630000 0.388743 0
18.635000 0.019008 0
18.640000 -0.236885 0
18.645000 -0.356816 0
18.650000 -0.358371 4
18.655000 -0.283403 0
18.660000 -0.181340 0
18.665000 -0.089157 0
18.670000 -0.020874 0
18.675000 0.027167 0
18.680000 0.064346 0
18.685000 0.097884 0
18.690000 0.131186 0
18.695000 0.165112 0
18.700000 0.199369 0
18.705000 0.233231 0
18.710000 0.265811 0
18.715000 0.296166 0
18.720000 0.323352 0
18.725000 0.346471 0
18.730000 0.364722 0
18.735000 0.377446 0
18.740000 0.384163 0
18.745000 0.384603 5
18.750000 0.378722 0
18.755000 0.366705 0
18.760000 0.348956 0
18.765000 0.326077 0
18.770000 0.298828 0
18.775000 0.268089 0
18.780000 0.234812 0
18.785000 0.199969 0
18.790000 0.164508 0
18.795000 0.129311 0
18.800000 0.095160 0
18.805000 0.062712 0
18.810000 0.032484 0
18.815000 0.004851 0
18.820000 -0.019955 0
18.825000 -0.041831 0
18.830000 -0.060787 0
18.835000 -0.076928 0
18.840000 -0.090427 0
18.845000 -0.101512 0
18.850000 -0.110439 0
18.855000 -0.117478 0
18.860000 -0.122898 0
18.865000 -0.126955 0
18.870000 -0.129887 0
18.875000 -0.129519 0
18.880000 -0.128594 0
18.885000 -0.127673 0
18.890000 -0.126756 0
18.895000 -0.125842 0
18.900000 -0.124928 0
18.905000 -0.124011 0
18.910000 -0.123081 0
18.915000 -0.122126 0
18.920000 -0.121116 0
18.925000 -0.120007 0
18.930000 -0.118721 0
18.935000 -0.117140 0
18.940000 -0.115082 0
18.945000 -0.112285 0
18.950000 -0.108393 0
18.955000 -0.102941 0
18.960000 -0.095368 0
18.965000 -0.085041 0
18.970000 -0.071316 0
18.975000 -0.053628 0
18.980000 -0.031616 0
18.985000 -0.005248 0
18.990000 0.025043 0
18.995000 0.058283 0
19.000000 0.092929 0
19.005000 0.126949 0
19.010000 0.157993 0
19.015000 0.183650 0
19.020000 0.201754 0
19.025000 0.210684 1
19.030000 0.209605 0
19.035000 0.198596 0
19.040000 0.178640 0
19.045000 0.151477 0
19.050000 0.119347 0
19.055000 0.084622 0
19.060000 0.049308 0
19.065000 0.014254 0
19.070000 -0.021976 0
19.075000 -0.063818 0
19.080000 -0.116937 0
19.085000 -0.182038 0
19.090000 -0.246585 0
19.095000 -0.281761 2
19.100000 -0.249234 0
19.105000 -0.113331 0
19.110000 0.144722 0
19.115000 0.504184 0
19.120000 0.879921 0
19.125000 1.133910 0
19.130000 1.148821 3
19.135000 0.913503 0
19.140000 0.529007 0
19.145000 0.134761 0
19.150000 -0.167720 0
19.155000 -0.337570 0
19.160000 -0.379748 4
19.165000 -0.328174 0
19.170000 -0.231125 0
19.175000 -0.131968 0
19.180000 -0.053695 0
19.185000 0.001630 0
19.190000 0.042279 0
19.195000 0.076772 0
19.200000 0.109993 0
19.205000 0.143670 0
19.210000 0.177886 0
19.215000 0.212060 0
19.220000 0.245371 0
19.225000 0.276908 0
19.230000 0.305732 0
19.235000 0.330931 0
19.240000 0.351663 0
19.245000 0.367203 0
19.250000 0.376989 0
19.255000 0.380648 5
19.260000 0.378021 0
19.265000 0.369177 0
19.270000 0.354405 0
19.275000 0.334199 0
19.280000 0.309230 0
19.285000 0.280309 0
19.290000 0.248342 0
19.295000 0.214283 0
19.300000 0.179086 0
19.305000 0.143663 0
19.310000 0.108846 0
19.315000 0.075356 0
19.320000 0.043786 0
19.325000 0.014590 0
19.330000 -0.011921 0
19.335000 -0.035570 0
19.340000 -0.056299 0
19.345000 -0.074157 0
19.350000 -0.089274 0
19.355000 -0.101845 0
19.360000 -0.112106 0
19.365000 -0.120315 0
19.370000 -0.126741 0
19.375000 -0.131646 0
19.380000 -0.135277 0
19.385000 -0.137859 0
19.390000 -0.137407 0
19.395000 -0.136442 0
19.400000 -0.135482 0
19.405000 -0.134526 0
19.410000 -0.133572 0
19.415000 -0.132618 0
19.420000 -0.131659 0
19.425000 -0.130685 0
19.430000 -0.129679 0
19.435000 -0.128611 0
19.440000 -0.127429 0
19.445000 -0.126048 0
19.450000 -0.124339 0
19.455000 -0.122104 0
19.460000 -0.119068 0
19.465000 -0.114855 0
19.470000 -0.108987 0
19.475000 -0.100892 0
19.480000 -0.089937 0
19.485000 -0.075496 0
19.490000 -0.057037 0
19.495000 -0.034251 0
19.500000 -0.007176 0
19.505000 0.023680 0
19.510000 0.057268 0
19.515000 0.091989 0
19.520000 0.125780 0
19.525000 0.156300 0
19.530000 0.181182 0
19.535000 0.198340 0
19.540000 0.206252 1
19.545000 0.204187 0
19.550000 0.192314 0
19.555000 0.171682 0
19.560000 0.144063 0
19.565000 0.111690 0
19.570000 0.076898 0
19.575000 0.041620 0
19.580000 0.006595 0
19.585000 -0.029739 0
19.590000 -0.071883 0
19.595000 -0.125388 0
19.600000 -0.190670 0
19.605000 -0.254964 0
19.610000 -0.289574 2
19.615000 -0.256625 0
19.620000 -0.120950 0
19.625000 0.136060 0
19.630000 0.494464 0
19.635000 0.871337 0
19.640000 1.130976 0
19.645000 1.155525 3
19.650000 0.929501 0
19.655000 0.549043 0
19.660000 0.151988 0
19.665000 -0.158224 0
19.670000 -0.337758 0
19.675000 -0.388943 4
19.680000 -0.343498 0
19.685000 -0.248542 0
19.690000 -0.148123 0
19.695000 -0.067200 0
19.700000 -0.009582 0
19.705000 0.032348 0
19.710000 0.067295 0
19.715000 0.100557 0
19.720000 0.134164 0
19.725000 0.168350 0
19.730000 0.202602 0
19.735000 0.236134 0
19.740000 0.268056 0
19.745000 0.297444 0
19.750000 0.323390 0
19.755000 0.345047 0
19.760000 0.361677 0
19.765000 0.372690 0
19.770000 0.377677 5
19.775000 0.376438 0
19.780000 0.368991 0
19.785000 0.355572 0
19.790000 0.336625 0
19.795000 0.312773 0
19.800000 0.284786 0
19.805000 0.253537 0
19.810000 0.219960 0
19.815000 0.185001 0
19.820000 0.149573 0
19.825000 0.114523 0
19.830000 0.080595 0
19.835000 0.048414 0
19.840000 0.018468 0
19.845000 -0.008892 0
19.850000 -0.033452 0
19.855000 -0.055118 0
19.860000 -0.073906 0
19.865000 -0.089919 0
19.870000 -0.103331 0
19.875000 -0.114362 0
19.880000 -0.123260 0
19.885000 -0.130290 0
19.890000 -0.135712 0
19.895000 -0.139778 0
19.900000 -0.142719 0
19.905000 -0.143301 0
19.910000 -0.142308 0
19.915000 -0.141319 0
19.920000 -0.140334 0
19.925000 -0.139352 0
19.930000 -0.138372 0
19.935000 -0.137389 0
19.940000 -0.136397 0
19.945000 -0.135383 0
19.950000 -0.134322 0
19.955000 -0.133176 0
19.960000 -0.131878 0
19.965000 -0.130322 0
19.970000 -0.128349 0
19.975000 -0.125728 0
19.980000 -0.122138 0
19.985000 -0.117159 0
19.990000 -0.110272 0
19.995000 -0.100879 0
20.000000 -0.088348 0
20.005000 -0.072093 0
20.010000 -0.051673 0
20.015000 -0.026923 0
20.020000 0.001925 0
20.025000 0.034143 0
20.030000 0.068456 0
20.035000 0.103078 0
20.040000 0.135833 0
20.045000 0.164368 0
20.050000 0.186423 0
20.055000 0.200130 0
20.060000 0.204273 1
20.065000 0.198464 0
20.070000 0.183207 0
20.075000 0.159822 0
20.080000 0.130259 0
20.085000 0.096801 0
20.090000 0.061681 0
20.095000 0.026512 0
20.100000 -0.008607 0
20.105000 -0.046162 0
20.110000 -0.091320 0
20.115000 -0.148828 0
20.120000 -0.215892 0
20.125000 -0.275091 0
20.130000 -0.294420 2
20.135000 -0.236026 0
20.140000 -0.068184 0
20.145000 0.219798 0
20.150000 0.593689 0
20.155000 0.954974 0
20.160000 1.165637 3
20.165000 1.128443 0
20.170000 0.856045 0
20.175000 0.460260 0
20.180000 0.075205 0
20.185000 -0.209292 0
20.190000 -0.361111 0
20.195000 -0.389693 4
20.200000 -0.330688 0
20.205000 -0.231708 0
20.210000 -0.133677 0
20.215000 -0.057123 0
20.220000 -0.002905 0
20.225000 0.037314 0
20.230000 0.071732 0
20.235000 0.104979 0
20.240000 0.138690 0
20.245000 0.172930 0
20.250000 0.207133 0
20.255000 0.240501 0
20.260000 0.272143 0
20.265000 0.301147 0
20.270000 0.326617 0
20.275000 0.347728 0
20.280000 0.363764 0
20.285000 0.374159 0
20.290000 0.378530 5
20.295000 0.376699 0
20.300000 0.368706 0
20.305000 0.354803 0
20.310000 0.335445 0
20.315000 0.311262 0
20.320000 0.283024 0
20.325000 0.251602 0
20.330000 0.217921 0
20.335000 0.182916 0
20.340000 0.147490 0
20.345000 0.112475 0
20.350000 0.078604 0
20.355000 0.046489 0
20.360000 0.016610 0
20.365000 -0.010690 0
20.370000 -0.035201 0
20.375000 -0.056832 0
20.380000 -0.075601 0
20.385000 -0.091609 0
20.390000 -0.105028 0
20.395000 -0.116076 0
20.400000 -0.125000 0
20.405000 -0.132059 0
20.410000 -0.137513 0
20.415000 -0.141610 0
20.420000 -0.144580 0
20.425000 -0.146185 0
20.430000 -0.145177 0
20.435000 -0.144173 0
20.440000 -0.143174 0
20.445000 -0.142179 0
20.450000 -0.141185 0
20.455000 -0.140189 0
20.460000 -0.139184 0
20.465000 -0.138159 0
20.470000 -0.137091 0
20.475000 -0.135942 0
20.480000 -0.134650 0
20.485000 -0.133115 0
20.490000 -0.131186 0
20.495000 -0.128644 0
20.500000 -0.125181 0
20.505000 -0.120395 0
20.510000 -0.113785 0
20.515000 -0.104766 0
20.520000 -0.092715 0
20.525000 -0.077038 0
20.530000 -0.057271 0
20.535000 -0.033201 0
20.540000 -0.004985 0
20.545000 0.026742 0
20.550000 0.060811 0
20.555000 0.095537 0
20.560000 0.128824 0
20.565000 0.158356 0
20.570000 0.181858 0
20.575000 0.197383 0
20.580000 0.203578 1
20.585000 0.199881 0
20.590000 0.186603 0
20.595000 0.164888 0
20.600000 0.136549 0
20.605000 0.103798 0
20.610000 0.068899 0
20.615000 0.033663 0
20.620000 -0.001343 0
20.625000 -0.037860 0
20.630000 -0.080451 0
20.635000 -0.134471 0
20.640000 -0.199963 0
20.645000 -0.264020 0
20.650000 -0.298387 2
20.655000 -0.266062 0
20.660000 -0.132638 0
20.665000 0.120583 0
20.670000 0.475844 0
20.675000 0.855132 0
20.680000 1.127406 0
20.685000 1.173259 3
20.690000 0.967209 0
20.695000 0.595697 0
20.700000 0.194387 0
20.705000 -0.129052 0
20.710000 -0.325124 0
20.715000 -0.391630 4
20.720000 -0.356810 0
20.725000 -0.265977 0
20.730000 -0.164168 0
20.735000 -0.079372 0
20.740000 -0.018200 0
20.745000 0.025796 0
20.750000 0.061511 0
20.755000 0.094853 0
20.760000 0.128329 0
20.765000 0.162417 0
20.770000 0.196709 0
20.775000 0.230469 0
20.780000 0.262835 0
20.785000 0.292902 0
20.790000 0.319768 0
20.795000 0.342579 0
20.800000 0.360579 0
20.805000 0.373144 0
20.810000 0.379821 0
20.815000 0.380355 5
20.820000 0.374701 0
20.825000 0.363030 0
20.830000 0.345720 0
20.835000 0.323332 0
20.840000 0.296584 0
20.845000 0.266308 0
20.850000 0.233408 0
20.855000 0.198815 0
20.860000 0.163446 0
20.865000 0.128161 0
20.870000 0.093732 0
20.875000 0.060821 0
20.880000 0.029959 0
20.885000 0.001544 0
20.890000 -0.024160 0
20.895000 -0.047016 0
20.900000 -0.066997 0
20.905000 -0.084172 0
20.910000 -0.098684 0
20.915000 -0.110732 0
20.920000 -0.120552 0
20.925000 -0.128398 0
20.930000 -0.134530 0
20.935000 -0.139202 0
20.940000 -0.142649 0
20.945000 -0.144589 0
20.950000 -0.143589 0
20.955000 -0.142594 0
20.960000 -0.141603 0
20.965000 -0.140616 0
20.970000 -0.139631 0
20.975000 -0.138647 0
20.980000 -0.137658 0
20.985000 -0.136654 0
20.990000 -0.135620 0
20.995000 -0.134525 0
21.000000 -0.133321 0
21.005000 -0.131927 0
21.010000 -0.130220 0
21.015000 -0.128016 0
21.020000 -0.125054 0
21.025000 -0.120980 0
21.030000 -0.115342 0
21.035000 -0.107597 0
21.040000 -0.097136 0
21.045000 -0.083343 0
21.050000 -0.065678 0
21.055000 -0.043789 0
21.060000 -0.017631 0
21.065000 0.012414 0
21.070000 0.045456 0
21.075000 0.080073 0
21.080000 0.114371 0
21.085000 0.146130 0
21.090000 0.173029 0
21.095000 0.192926 0
21.100000 0.204136 0
21.105000 0.205667 1
21.110000 0.197367 0
21.115000 0.179950 0
21.120000 0.154889 0
21.125000 0.124212 0
21.130000 0.090195 0
21.135000 0.054959 0
21.140000 0.019859 0
21.145000 -0.015449 0
21.150000 -0.053999 0
21.155000 -0.101172 0
21.160000 -0.160908 0
21.165000 -0.228327 0
21.170000 -0.283596 0
21.175000 -0.293528 2
21.180000 -0.220983 0
21.185000 -0.036631 0
21.190000 0.265638 0
21.195000 0.644571 0
21.200000 0.995869 0
21.205000 1.183378 3
21.210000 1.119460 0
21.215000 0.828528 0
21.220000 0.428163 0
21.225000 0.049796 0
21.230000 -0.222829 0
21.235000 -0.362440 0
21.240000 -0.381398 4
21.245000 -0.316941 0
21.250000 -0.216689 0
21.255000 -0.120023 0
21.260000 -0.045505 0
21.265000 0.007208 0
21.270000 0.046686 0
21.275000 0.080864 0
21.280000 0.114084 0
21.285000 0.147808 0
21.290000 0.182035 0
21.295000 0.216174 0
21.300000 0.249422 0
21.305000 0.280889 0
21.310000 0.309665 0
21.315000 0.334862 0
21.320000 0.355663 0
21.325000 0.371362 0
21.330000 0.381406 0
21.335000 0.385423 5
21.340000 0.383248 0
21.345000 0.374930 0
21.350000 0.360732 0
21.355000 0.341115 0
21.360000 0.316712 0
21.365000 0.288298 0
21.370000 0.256741 0
21.375000 0.222965 0
21.380000 0.187900 0
21.385000 0.152444 0
21.390000 0.117423 0
21.395000 0.083563 0
21.400000 0.051472 0
21.405000 0.021622 0
21.410000 -0.005647 0
21.415000 -0.030129 0
21.420000 -0.051737 0
21.425000 -0.070487 0
21.430000 -0.086486 0
21.435000 -0.099902 0
21.440000 -0.110954 0
21.445000 -0.119888 0
21.450000 -0.126963 0
21.455000 -0.132437 0
21.460000 -0.136557 0
21.465000 -0.139552 0
21.470000 -0.141184 0
21.475000 -0.140201 0
21.480000 -0.139223 0
21.485000 -0.138248 0
21.490000 -0.137277 0
21.495000 -0.136308 0
21.500000 -0.135336 0
21.505000 -0.134356 0
21.510000 -0.133356 0
21.515000 -0.132313 0
21.520000 -0.131190 0
21.525000 -0.129927 0
21.530000 -0.128424 0
21.535000 -0.126533 0
21.540000 -0.124036 0
21.545000 -0.120633 0
21.550000 -0.115924 0
21.555000 -0.109413 0
21.560000 -0.100521 0
21.565000 -0.088628 0
21.570000 -0.073140 0
21.575000 -0.053586 0
21.580000 -0.029739 0
21.585000 -0.001737 0
21.590000 0.029813 0
21.595000 0.063772 0
21.600000 0.098490 0
21.605000 0.131895 0
21.610000 0.161687 0
21.615000 0.185590 0
21.620000 0.201637 0
21.625000 0.208436 1
21.630000 0.205373 0
21.635000 0.192700 0
21.640000 0.171504 0
21.645000 0.143549 0
21.650000 0.111024 0
21.655000 0.076193 0
21.660000 0.040918 0
21.665000 0.005898 0
21.670000 -0.030377 0
21.675000 -0.072248 0
21.680000 -0.125163 0
21.685000 -0.189949 0
21.690000 -0.255116 0
21.695000 -0.293763 2
21.700000 -0.269384 0
21.705000 -0.146954 0
21.710000 0.094405 0
21.715000 0.441785 0
21.720000 0.824074 0
21.725000 1.114104 0
21.730000 1.187483 3
21.735000 1.005768 0
21.740000 0.645155 0
21.745000 0.241085 0
21.750000 -0.092934 0
21.755000 -0.301537 0
21.760000 -0.378880 4
21.765000 -0.351187 0
21.770000 -0.263201 0
21.775000 -0.161012 0
21.780000 -0.074517 0
21.785000 -0.011820 0
21.790000 0.033007 0
21.795000 0.068992 0
21.800000 0.102333 0
21.805000 0.135728 0
21.810000 0.169742 0
21.815000 0.203994 0
21.820000 0.237754 0
21.825000 0.270158 0
21.830000 0.300294 0
21.835000 0.327254 0
21.840000 0.350175 0
21.845000 0.368292 0
21.850000 0.380972 0
21.855000 0.387753 0
21.860000 0.388374 5
21.865000 0.382785 0
21.870000 0.371154 0
21.875000 0.353859 0
21.880000 0.331464 0
21.885000 0.304689 0
21.890000 0.274372 0
21.895000 0.241423 0
21.900000 0.206781 0
21.905000 0.171367 0
21.910000 0.136047 0
21.915000 0.101598 0
21.920000 0.068682 0
21.925000 0.037832 0
21.930000 0.009446 0
21.935000 -0.016215 0
21.940000 -0.039016 0
21.945000 -0.058932 0
21.950000 -0.076038 0
21.955000 -0.090479 0
21.960000 -0.102458 0
21.965000 -0.112213 0
21.970000 -0.120002 0
21.975000 -0.126086 0
21.980000 -0.130719 0
21.985000 -0.134138 0
21.990000 -0.136068 0
21.995000 -0.135111 0
22.000000 -0.134158 0
22.005000 -0.133209 0
22.010000 -0.132264 0
22.015000 -0.131321 0
22.020000 -0.130377 0
22.025000 -0.129428 0
22.030000 -0.128463 0
22.035000 -0.127464 0
22.040000 -0.126401 0
22.045000 -0.125221 0
22.050000 -0.123839 0
22.055000 -0.122126 0
22.060000 -0.119887 0
22.065000 -0.116850 0
22.070000 -0.112648 0
22.075000 -0.106812 0
22.080000 -0.098785 0
22.085000 -0.087949 0
22.090000 -0.073690 0
22.095000 -0.055482 0
22.100000 -0.033006 0
22.105000 -0.006273 0
22.110000 0.024261 0
22.115000 0.057618 0
22.120000 0.092287 0
22.125000 0.126297 0
22.130000 0.157379 0
22.135000 0.183207 0
22.140000 0.201681 0
22.145000 0.211211 1
22.150000 0.210939 0
22.155000 0.200869 0
22.160000 0.181870 0
22.165000 0.155550 0
22.170000 0.124020 0
22.175000 0.089579 0
22.180000 0.054270 0
22.185000 0.019199 0
22.190000 -0.016465 0
22.195000 -0.056376 0
22.200000 -0.106106 0
22.205000 -0.168410 0
22.210000 -0.235444 0
22.215000 -0.283805 2
22.220000 -0.278208 0
22.225000 -0.181986 0
22.230000 0.030667 0
22.235000 0.357131 0
22.240000 0.741087 0
22.245000 1.064574 0
22.250000 1.194200 3
22.255000 1.066085 0
22.260000 0.733472 0
22.265000 0.327473 0
22.270000 -0.027700 0
22.275000 -0.263736 0
22.280000 -0.366090 4
22.285000 -0.355856 0
22.290000 -0.275659 0
22.295000 -0.173236 0
22.300000 -0.082702 0
22.305000 -0.015966 0
22.310000 0.031279 0
22.315000 0.068201 0
22.320000 0.101690 0
22.325000 0.134977 0
22.330000 0.168881 0
22.335000 0.203117 0
22.340000 0.236982 0
22.345000 0.269617 0
22.350000 0.300108 0
22.355000 0.327533 0
22.360000 0.351016 0
22.365000 0.369767 0
22.370000 0.383129 0
22.375000 0.390615 0
22.380000 0.391934 5
22.385000 0.387012 0
22.390000 0.375994 0
22.395000 0.359238 0
22.400000 0.337296 0
22.405000 0.310881 0
22.410000 0.280827 0
22.415000 0.248047 0
22.420000 0.213489 0
22.425000 0.178083 0
22.430000 0.142708 0
22.435000 0.108156 0
22.440000 0.075102 0
22.445000 0.044094 0
22.450000 0.015540 0
22.455000 -0.010288 0
22.460000 -0.033248 0
22.465000 -0.053312 0
22.470000 -0.070548 0
22.475000 -0.085102 0
22.480000 -0.097177 0
22.485000 -0.107012 0
22.490000 -0.114865 0
22.495000 -0.121001 0
22.500000 -0.125676 0
22.505000 -0.129131 0
22.510000 -0.131090 0
22.515000 -0.130157 0
22.520000 -0.129229 0
22.525000 -0.128304 0
22.530000 -0.127383 0
22.535000 -0.126465 0
22.540000 -0.125545 0
22.545000 -0.124620 0
22.550000 -0.123678 0
22.555000 -0.122701 0
22.560000 -0.121658 0
22.565000 -0.120495 0
22.570000 -0.119124 0
22.575000 -0.117413 0
22.580000 -0.115161 0
22.585000 -0.112090 0
22.590000 -0.107821 0
22.595000 -0.101878 0
22.600000 -0.093692 0
22.605000 -0.082638 0
22.610000 -0.068100 0
22.615000 -0.049560 0
22.620000 -0.026720 0
22.625000 0.000373 0
22.630000 0.031214 0
22.635000 0.064763 0
22.640000 0.099444 0
22.645000 0.133229 0
22.650000 0.163810 0
22.655000 0.188852 0
22.660000 0.206285 0
22.665000 0.214585 1
22.670000 0.212993 0
22.675000 0.201630 0
22.680000 0.181483 0
22.685000 0.154259 0
22.690000 0.122138 0
22.695000 0.087432 0
22.700000 0.052106 0
22.705000 0.017044 0
22.710000 -0.019011 0
22.715000 -0.060208 0
22.720000 -0.112139 0
22.725000 -0.176298 0
22.730000 -0.242140 0
22.735000 -0.283327 2
22.740000 -0.263127 0
22.745000 -0.145663 0
22.750000 0.091192 0
22.755000 0.436036 0
22.760000 0.818703 0
22.765000 1.111148 0
22.770000 1.186626 3
22.775000 1.005110 0
22.780000 0.643662 0
22.785000 0.240041 0
22.790000 -0.091185 0
22.795000 -0.295166 0
22.800000 -0.367303 4
22.805000 -0.335354 0
22.810000 -0.245365 0
22.815000 -0.143634 0
22.820000 -0.059025 0
22.825000 0.001721 0
22.830000 0.045290 0
22.835000 0.080737 0
22.840000 0.113963 0
22.845000 0.147394 0
22.850000 0.181436 0
22.855000 0.215632 0
22.860000 0.249213 0
22.865000 0.281289 0
22.870000 0.310928 0
22.875000 0.337210 0
22.880000 0.359274 0
22.885000 0.376359 0
22.890000 0.387853 0
22.895000 0.393327 5
22.900000 0.392558 0
22.905000 0.385543 0
22.910000 0.372503 0
22.915000 0.353871 0
22.920000 0.330261 0
22.925000 0.302442 0
22.930000 0.271288 0
22.935000 0.237740 0
22.940000 0.202751 0
22.945000 0.167246 0
22.950000 0.132082 0
22.955000 0.098017 0
22.960000 0.065684 0
22.965000 0.035582 0
22.970000 0.008068 0
22.975000 -0.016636 0
22.980000 -0.038436 0
22.985000 -0.057344 0
22.990000 -0.073463 0
22.995000 -0.086969 0
23.000000 -0.098081 0
23.005000 -0.107053 0
23.010000 -0.114150 0
23.015000 -0.119634 0
23.020000 -0.123759 0
23.025000 -0.126758 0
23.030000 -0.126415 0
23.035000 -0.125505 0
23.040000 -0.124600 0
23.045000 -0.123698 0
23.050000 -0.122799 0
23.055000 -0.121902 0
23.060000 -0.121001 0
23.065000 -0.120089 0
23.070000 -0.119154 0
23.075000 -0.118170 0
23.080000 -0.117096 0
23.085000 -0.115862 0
23.090000 -0.114359 0
23.095000 -0.112422 0
23.100000 -0.109808 0
23.105000 -0.106188 0
23.110000 -0.101128 0
23.115000 -0.094095 0
23.120000 -0.084479 0
23.125000 -0.071646 0
23.130000 -0.055011 0
23.135000 -0.034158 0
23.140000 -0.008960 0
23.145000 0.020293 0
23.150000 0.052797 0
23.155000 0.087195 0
23.160000 0.121624 0
23.165000 0.153849 0
23.170000 0.181491 0
23.175000 0.202313 0
23.180000 0.214514 0
23.185000 0.216989 1
23.190000 0.209491 0
23.195000 0.192674 0
23.200000 0.167993 0
23.205000 0.137497 0
23.210000 0.103512 0
23.215000 0.068226 0
23.220000 0.033058 0
23.225000 -0.002315 0
23.230000 -0.040992 0
23.235000 -0.088487 0
23.240000 -0.148703 0
23.245000 -0.216176 0
23.250000 -0.269846 0
23.255000 -0.275187 2
23.260000 -0.194336 0
23.265000 0.001455 0
23.270000 0.314925 0
23.275000 0.697062 0
23.280000 1.034258 0
23.285000 1.188588 3
23.290000 1.084300 0
23.295000 0.764664 0
23.300000 0.359444 0
23.305000 -0.002071 0
23.310000 -0.246142 0
23.315000 -0.355177 4
23.320000 -0.349101 0
23.325000 -0.270581 0
23.330000 -0.168277 0
23.335000 -0.077407 0
23.340000 -0.010480 0
23.345000 0.036757 0
23.350000 0.073611 0
23.355000 0.107057 0
23.360000 0.140334 0
23.365000 0.174236 0
23.370000 0.208452 0
23.375000 0.242257 0
23.380000 0.274776 0
23.385000 0.305074 0
23.390000 0.332218 0
23.395000 0.355319 0
23.400000 0.373586 0
23.405000 0.386364 0
23.410000 0.393176 0
23.415000 0.393749 5
23.420000 0.388035 0
23.425000 0.376209 0
23.430000 0.358663 0
23.435000 0.335982 0
23.440000 0.308913 0
23.445000 0.278321 0
23.450000 0.245143 0
23.455000 0.210342 0
23.460000 0.174858 0
23.465000 0.139570 0
23.470000 0.105260 0
23.475000 0.072591 0
23.480000 0.042088 0
23.485000 0.014133 0
23.490000 -0.011028 0
23.495000 -0.033280 0
23.500000 -0.052621 0
23.505000 -0.069144 0
23.510000 -0.083014 0
23.515000 -0.094450 0
23.520000 -0.103701 0
23.525000 -0.111035 0
23.530000 -0.116718 0
23.535000 -0.121005 0
23.540000 -0.124136 0
23.545000 -0.125875 0
23.550000 -0.124968 0
23.555000 -0.124066 0
23.560000 -0.123167 0
23.565000 -0.122271 0
23.570000 -0.121376 0
23.575000 -0.120479 0
23.580000 -0.119572 0
23.585000 -0.118642 0
23.590000 -0.117666 0
23.595000 -0.116603 0
23.600000 -0.115386 0
23.605000 -0.113908 0
23.610000 -0.112006 0
23.615000 -0.109443 0
23.620000 -0.105890 0
23.625000 -0.100916 0
23.630000 -0.093989 0
23.635000 -0.084498 0
23.640000 -0.071800 0
23.645000 -0.055307 0
23.650000 -0.034587 0
23.655000 -0.009504 0
23.660000 0.019663 0
23.665000 0.052116 0
23.670000 0.086500 0
23.675000 0.120940 0
23.680000 0.153190 0
23.685000 0.180853 0
23.690000 0.201671 0
23.695000 0.213832 0
23.700000 0.216224 1
23.705000 0.208608 0
23.710000 0.191651 0
23.715000 0.166835 0
23.720000 0.136229 0
23.725000 0.102182 0
23.730000 0.066885 0
23.735000 0.031729 0
23.740000 -0.003697 0
23.745000 -0.042638 0
23.750000 -0.090695 0
23.755000 -0.151539 0
23.760000 -0.218947 0
23.765000 -0.270794 0
23.770000 -0.271759 2
23.775000 -0.183894 0
23.780000 0.020633 0
23.785000 0.341762 0
23.790000 0.725201 0
23.795000 1.052207 0
23.800000 1.185550 3
23.805000 1.058321 0
23.810000 0.724710 0
23.815000 0.318782 0
23.820000 -0.033418 0
23.825000 -0.263908 0
23.830000 -0.359619 4
23.835000 -0.343572 0
23.840000 -0.260200 0
23.845000 -0.157828 0
23.850000 -0.069470 0
23.855000 -0.005257 0
23.860000 0.040262 0
23.865000 0.076413 0
23.870000 0.109735 0
23.875000 0.143089 0
23.880000 0.177070 0
23.885000 0.211287 0
23.890000 0.244980 0
23.895000 0.277256 0
23.900000 0.307175 0
23.905000 0.333800 0
23.910000 0.356250 0
23.915000 0.373746 0
23.920000 0.385654 0
23.925000 0.391525 5
23.930000 0.391118 0
23.935000 0.384419 0
23.940000 0.371641 0
23.945000 0.353211 0
23.950000 0.329747 0
23.955000 0.302022 0
23.960000 0.270922 0
23.965000 0.237398 0
23.970000 0.202415 0
23.975000 0.166911 0
23.980000 0.131755 0
23.985000 0.097713 0
23.990000 0.065424 0
23.995000 0.035391 0
24.000000 0.007971 0
24.005000 -0.016616 0
24.010000 -0.038277 0
24.015000 -0.057032 0
24.020000 -0.072990 0
24.025000 -0.086329 0
24.030000 -0.097279 0
24.035000 -0.106094 0
24.040000 -0.113045 0
24.045000 -0.118397 0
24.050000 -0.122406 0
24.055000 -0.125304 0
24.060000 -0.124951 0
24.065000 -0.124049 0
24.070000 -0.123151 0
24.075000 -0.122256 0
24.080000 -0.121364 0
24.085000 -0.120472 0
24.090000 -0.119577 0
24.095000 -0.118669 0
24.100000 -0.117734 0
24.105000 -0.116744 0
24.110000 -0.115653 0
24.115000 -0.114385 0
24.120000 -0.112818 0
24.125000 -0.110772 0
24.130000 -0.107986 0
24.135000 -0.104102 0
24.140000 -0.098660 0
24.145000 -0.091099 0
24.150000 -0.080790 0
24.155000 -0.067093 0
24.160000 -0.049447 0
24.165000 -0.027490 0
24.170000 -0.001189 0
24.175000 0.029033 0
24.180000 0.062213 0
24.185000 0.096827 0
24.190000 0.130863 0
24.195000 0.161988 0
24.200000 0.187804 0
24.205000 0.206144 0
24.210000 0.215378 1
24.215000 0.214645 0
24.220000 0.203991 0
24.225000 0.184358 0
24.230000 0.157452 0
24.235000 0.125482 0
24.240000 0.090813 0
24.245000 0.055473 0
24.250000 0.020395 0
24.255000 -0.015689 0
24.260000 -0.057023 0
24.265000 -0.109301 0
24.270000 -0.173814 0
24.275000 -0.239202 0
24.280000 -0.277847 2
24.285000 -0.251937 0
24.290000 -0.125340 0
24.295000 0.122640 0
24.300000 0.475739 0
24.305000 0.855185 0
24.310000 1.126210 0
24.315000 1.166196 3
24.320000 0.951209 0
24.325000 0.574179 0
24.330000 0.176029 0
24.335000 -0.135878 0
24.340000 -0.315787 0
24.345000 -0.365949 4
24.350000 -0.319039 0
24.355000 -0.223400 0
24.360000 -0.123636 0
24.365000 -0.044229 0
24.370000 0.011898 0
24.375000 0.052881 0
24.380000 0.087424 0
24.385000 0.120589 0
24.390000 0.154193 0
24.395000 0.188347 0
24.400000 0.222472 0
24.405000 0.255742 0
24.410000 0.287235 0
24.415000 0.316005 0
24.420000 0.341130 0
24.425000 0.361760 0
24.430000 0.377166 0
24.435000 0.386781 0
24.440000 0.390232 5
24.445000 0.387367 0
24.450000 0.378260 0
24.455000 0.363211 0
24.460000 0.342727 0
24.465000 0.317492 0
24.470000 0.288331 0
24.475000 0.256162 0
24.480000 0.221951 0
24.485000 0.186660 0
24.490000 0.151204 0
24.495000 0.116417 0
24.500000 0.083016 0
24.505000 0.051590 0
24.510000 0.022583 0
24.515000 -0.003703 0
24.520000 -0.027101 0
24.525000 -0.047567 0
24.530000 -0.065159 0
24.535000 -0.080016 0
24.540000 -0.092341 0
24.545000 -0.102377 0
24.550000 -0.110387 0
24.555000 -0.116640 0
24.560000 -0.121402 0
24.565000 -0.124917 0
24.570000 -0.126917 0
24.575000 -0.126005 0
24.580000 -0.125097 0
24.585000 -0.124193 0
24.590000 -0.123293 0
24.595000 -0.122395 0
24.600000 -0.121495 0
24.605000 -0.120589 0
24.610000 -0.119665 0
24.615000 -0.118704 0
24.620000 -0.117671 0
24.625000 -0.116509 0
24.630000 -0.115124 0
24.635000 -0.113372 0
24.640000 -0.111039 0
24.645000 -0.107823 0
24.650000 -0.103323 0
24.655000 -0.097032 0
24.660000 -0.088354 0
24.665000 -0.076643 0
24.670000 -0.061281 0
24.675000 -0.041777 0
24.680000 -0.017893 0
24.685000 0.010215 0
24.690000 0.041896 0
24.695000 0.075933 0
24.700000 0.110572 0
24.705000 0.143626 0
24.710000 0.172695 0
24.715000 0.195440 0
24.720000 0.209895 0
24.725000 0.214745 1
24.730000 0.209523 0
24.735000 0.194686 0
24.740000 0.171547 0
24.745000 0.142077 0
24.750000 0.108611 0
24.755000 0.073438 0
24.760000 0.038212 0
24.765000 0.003015 0
24.770000 -0.034759 0
24.775000 -0.080449 0
24.780000 -0.138736 0
24.785000 -0.206056 0
24.790000 -0.263449 0
24.795000 -0.277278 2
24.800000 -0.208862 0
24.805000 -0.027153 0
24.810000 0.274840 0
24.815000 0.654200 0
24.820000 1.001479 0
24.825000 1.175708 3
24.830000 1.091838 0
24.835000 0.784638 0
24.840000 0.380890 0
24.845000 0.013182 0
24.850000 -0.239897 0
24.855000 -0.357408 0
24.860000 -0.357413 4
24.865000 -0.281797 0
24.870000 -0.179681 0
24.875000 -0.087640 0
24.880000 -0.019457 0
24.885000 0.028560 0
24.890000 0.065743 0
24.895000 0.099279 0
24.900000 0.132568 0
24.905000 0.166480 0
24.910000 0.200728 0
24.915000 0.234593 0
24.920000 0.267197 0
24.925000 0.297602 0
24.930000 0.324868 0
24.935000 0.348101 0
24.940000 0.366501 0
24.945000 0.379408 0
24.950000 0.386339 0
24.955000 0.387018 5
24.960000 0.381390 0
24.965000 0.369632 0
24.970000 0.352136 0
24.975000 0.329490 0
24.980000 0.302444 0
24.985000 0.271869 0
24.990000 0.238706 0
24.995000 0.203923 0
25.000000 0.168466 0
25.005000 0.133217 0
25.010000 0.098961 0
25.015000 0.066361 0
25.020000 0.035941 0
25.025000 0.008085 0
25.030000 -0.016966 0
25.035000 -0.039099 0
25.040000 -0.058315 0
25.045000 -0.074710 0
25.050000 -0.088454 0
25.055000 -0.099767 0
25.060000 -0.108901 0
25.065000 -0.116125 0
25.070000 -0.121707 0
25.075000 -0.125904 0
25.080000 -0.128953 0
25.085000 -0.130627 0
25.090000 -0.129696 0
25.095000 -0.128770 0
25.100000 -0.127848 0
25.105000 -0.126928 0
25.110000 -0.126010 0
25.115000 -0.125089 0
25.120000 -0.124157 0
25.125000 -0.123201 0
25.130000 -0.122197 0
25.135000 -0.121101 0
25.140000 -0.119843 0
25.145000 -0.118311 0
25.150000 -0.116336 0
25.155000 -0.113670 0
25.160000 -0.109974 0
25.165000 -0.104804 0
25.170000 -0.097616 0
25.175000 -0.087789 0
25.180000 -0.074678 0
25.185000 -0.057703 0
25.190000 -0.036457 0
25.195000 -0.010845 0
25.200000 0.018796 0
25.205000 0.051595 0
25.210000 0.086122 0
25.215000 0.120436 0
25.220000 0.152243 0
25.225000 0.179135 0
25.230000 0.198887 0
25.235000 0.209756 0
25.240000 0.210742 1
25.245000 0.201734 0
25.250000 0.183531 0
25.255000 0.157725 0
25.260000 0.126463 0
25.265000 0.092111 0
25.270000 0.056800 0
25.275000 0.021714 0
25.280000 -0.013963 0
25.285000 -0.053987 0
25.290000 -0.104093 0
25.295000 -0.166888 0
25.300000 -0.233616 0
25.305000 -0.279226 2
25.310000 -0.266854 0
25.315000 -0.159200 0
25.320000 0.068212 0
25.325000 0.407273 0
25.330000 0.790728 0
25.335000 1.090069 0
25.340000 1.173976 3
25.345000 0.998245 0
25.350000 0.639252 0
25.355000 0.235333 0
25.360000 -0.097283 0
25.365000 -0.302539 0
25.370000 -0.375389 4
25.375000 -0.343623 0
25.380000 -0.253571 0
25.385000 -0.151836 0
25.390000 -0.067379 0
25.395000 -0.006841 0
25.400000 0.036587 0
25.405000 0.071998 0
25.410000 0.105261 0
25.415000 0.138757 0
25.420000 0.172859 0
25.425000 0.207097 0
25.430000 0.240687 0
25.435000 0.272731 0
25.440000 0.302291 0
25.445000 0.328441 0
25.450000 0.350316 0
25.455000 0.367158 0
25.460000 0.378361 0
25.465000 0.383502 5
25.470000 0.382370 0
25.475000 0.374978 0
25.480000 0.361564 0
25.485000 0.342576 0
25.490000 0.318648 0
25.495000 0.290562 0
25.500000 0.259209 0
25.505000 0.225537 0
25.510000 0.190505 0
25.515000 0.155041 0
25.520000 0.120000 0
25.525000 0.086131 0
25.530000 0.054061 0
25.535000 0.024274 0
25.540000 -0.002883 0
25.545000 -0.027205 0
25.550000 -0.048607 0
25.555000 -0.067117 0
25.560000 -0.082848 0
25.565000 -0.095983 0
25.570000 -0.106749 0
25.575000 -0.115405 0
25.580000 -0.122216 0
25.585000 -0.127448 0
25.590000 -0.131353 0
25.595000 -0.134161 0
25.600000 -0.133758 0
25.605000 -0.132811 0
25.610000 -0.131870 0
25.615000 -0.130932 0
25.620000 -0.129996 0
25.625000 -0.129061 0
25.630000 -0.128123 0
25.635000 -0.127172 0
25.640000 -0.126194 0
25.645000 -0.125160 0
25.650000 -0.124026 0
25.655000 -0.122713 0
25.660000 -0.121102 0
25.665000 -0.119013 0
25.670000 -0.116184 0
25.675000 -0.112263 0
25.680000 -0.106789 0
25.685000 -0.099207 0
25.690000 -0.088893 0
25.695000 -0.075208 0
25.700000 -0.057595 0
25.705000 -0.035687 0
25.710000 -0.009446 0
25.715000 0.020721 0
25.720000 0.053871 0
25.725000 0.088505 0
25.730000 0.122635 0
25.735000 0.153952 0
25.740000 0.180066 0
25.745000 0.198810 0
25.750000 0.208533 1
25.755000 0.208340 0
25.760000 0.198230 0
25.765000 0.179095 0
25.770000 0.152595 0
25.775000 0.120904 0
25.780000 0.086375 0
25.785000 0.051067 0
25.790000 0.016014 0
25.795000 -0.019849 0
25.800000 -0.060533 0
25.805000 -0.111736 0
25.810000 -0.175408 0
25.815000 -0.241560 0
25.820000 -0.284030 2
25.825000 -0.265681 0
25.830000 -0.149909 0
25.835000 0.086074 0
25.840000 0.430974 0
25.845000 0.813411 0
25.850000 1.103032 0
25.855000 1.172034 3
25.860000 0.983466 0
25.865000 0.618819 0
25.870000 0.215983 0
25.875000 -0.112171 0
25.880000 -0.312512 0
25.885000 -0.381507 4
25.890000 -0.347496 0
25.895000 -0.256678 0
25.900000 -0.155029 0
25.905000 -0.070856 0
25.910000 -0.010480 0
25.915000 0.032918 0
25.920000 0.068349 0
25.925000 0.101631 0
25.930000 0.135137 0
25.935000 0.169249 0
25.940000 0.203506 0
25.945000 0.237136 0
25.950000 0.269250 0
25.955000 0.298919 0
25.960000 0.325224 0
25.965000 0.347307 0
25.970000 0.364410 0
25.975000 0.375923 0
25.980000 0.381420 5
25.985000 0.380678 0
25.990000 0.373698 0
25.995000 0.360700 0
26.000000 0.342116 0
26.005000 0.318560 0
26.010000 0.290799 0
26.015000 0.259707 0
26.020000 0.226221 0
26.025000 0.191292 0
26.030000 0.155846 0
26.035000 0.120736 0
26.040000 0.086720 0
26.045000 0.054430 0
26.050000 0.024366 0
26.055000 -0.003116 0
26.060000 -0.027793 0
26.065000 -0.049568 0
26.070000 -0.068453 0
26.075000 -0.084552 0
26.080000 -0.098037 0
26.085000 -0.109128 0
26.090000 -0.118077 0
26.095000 -0.125147 0
26.100000 -0.130604 0
26.105000 -0.134697 0
26.110000 -0.137662 0
26.115000 -0.137267 0
26.120000 -0.136304 0
26.125000 -0.135344 0
26.130000 -0.134389 0
26.135000 -0.133437 0
26.140000 -0.132486 0
26.145000 -0.131533 0
26.150000 -0.130570 0
26.155000 -0.129583 0
26.160000 -0.128549 0
26.165000 -0.127427 0
26.170000 -0.126149 0
26.175000 -0.124606 0
26.180000 -0.122636 0
26.185000 -0.120001 0
26.190000 -0.116375 0
26.195000 -0.111327 0
26.200000 -0.104331 0
26.205000 -0.094780 0
26.210000 -0.082040 0
26.215000 -0.065524 0
26.220000 -0.044807 0
26.225000 -0.019747 0
26.230000 0.009386 0
26.235000 0.041815 0
26.240000 0.076210 0
26.245000 0.110733 0
26.250000 0.143166 0
26.255000 0.171136 0
26.260000 0.192396 0
26.265000 0.205121 0
26.270000 0.208166 1
26.275000 0.201239 0
26.280000 0.184944 0
26.285000 0.160695 0
26.290000 0.130511 0
26.295000 0.096708 0
26.300000 0.061491 0
26.305000 0.026347 0
26.310000 -0.008913 0
26.315000 -0.047196 0
26.320000 -0.093928 0
26.325000 -0.153311 0
26.330000 -0.220730 0
26.335000 -0.276221 0
26.340000 -0.285953 2
26.345000 -0.211980 0
26.350000 -0.024558 0
26.355000 0.281591 0
26.360000 0.661964 0
26.365000 1.007192 0
26.370000 1.178686 3
26.375000 1.094229 0
26.380000 0.788687 0
26.385000 0.385418 0
26.390000 0.014631 0
26.395000 -0.244848 0
26.400000 -0.370355 0
26.405000 -0.377692 4
26.410000 -0.306507 0
26.415000 -0.204930 0
26.420000 -0.110569 0
26.425000 -0.039312 0
26.430000 0.010982 0
26.435000 0.049283 0
26.440000 0.083140 0
26.445000 0.116410 0
26.450000 0.150255 0
26.455000 0.184533 0
26.460000 0.218595 0
26.465000 0.251607 0
26.470000 0.282663 0
26.475000 0.310842 0
26.480000 0.335258 0
26.485000 0.355102 0
26.490000 0.369689 0
26.495000 0.378494 0
26.500000 0.381186 5
26.505000 0.377644 0
26.510000 0.367966 0
26.515000 0.352466 0
26.520000 0.331653 0
26.525000 0.306206 0
26.530000 0.276934 0
26.535000 0.244735 0
26.540000 0.210547 0
26.545000 0.175307 0
26.550000 0.139907 0
26.555000 0.105155 0
26.560000 0.071756 0
26.565000 0.040285 0
26.570000 0.011182 0
26.575000 -0.015253 0
26.580000 -0.038846 0
26.585000 -0.059545 0
26.590000 -0.077397 0
26.595000 -0.092530 0
26.600000 -0.105135 0
26.605000 -0.115442 0
26.610000 -0.123708 0
26.615000 -0.130194 0
26.620000 -0.135158 0
26.625000 -0.138846 0
26.630000 -0.141480 0
26.635000 -0.141020 0
26.640000 -0.140038 0
26.645000 -0.139060 0
26.650000 -0.138086 0
26.655000 -0.137114 0
26.660000 -0.136143 0
26.665000 -0.135169 0
26.670000 -0.134181 0
26.675000 -0.133165 0
26.680000 -0.132094 0
26.685000 -0.130919 0
26.690000 -0.129566 0
26.695000 -0.127915 0
26.700000 -0.125787 0
26.705000 -0.122927 0
26.710000 -0.118987 0
26.715000 -0.113520 0
26.720000 -0.105981 0
26.725000 -0.095759 0
26.730000 -0.082228 0
26.735000 -0.064834 0
26.740000 -0.043203 0
26.745000 -0.017269 0
26.750000 0.012606 0
26.755000 0.045545 0
26.760000 0.080130 0
26.765000 0.114459 0
26.770000 0.146291 0
26.775000 0.173277 0
26.780000 0.193243 0
26.785000 0.204479 0
26.790000 0.205979 1
26.795000 0.197591 0
26.800000 0.180043 0
26.805000 0.154840 0
26.810000 0.124038 0
26.815000 0.089945 0
26.820000 0.054692 0
26.825000 0.019601 0
26.830000 -0.015784 0
26.835000 -0.054684 0
26.840000 -0.102604 0
26.845000 -0.163193 0
26.850000 -0.230590 0
26.855000 -0.283520 0
26.860000 -0.287654 2
26.865000 -0.205624 0
26.870000 -0.009184 0
26.875000 0.304226 0
26.880000 0.686299 0
26.885000 1.025162 0
26.890000 1.184225 3
26.895000 1.087228 0
26.900000 0.774305 0
26.905000 0.370009 0
26.910000 0.002210 0
26.915000 -0.253111 0
26.920000 -0.374995 0
26.925000 -0.379954 4
26.930000 -0.307709 0
26.935000 -0.205984 0
26.940000 -0.111810 0
26.945000 -0.040701 0
26.950000 0.009560 0
26.955000 0.047881 0
26.960000 0.081754 0
26.965000 0.115025 0
26.970000 0.148866 0
26.975000 0.183144 0
26.980000 0.217224 0
26.985000 0.250279 0
26.990000 0.281413 0
26.995000 0.309712 0
27.000000 0.334294 0
27.005000 0.354356 0
27.010000 0.369210 0
27.015000 0.378329 0
27.020000 0.381373 5
27.025000 0.378209 0
27.030000 0.368924 0
27.035000 0.353813 0
27.040000 0.333370 0
27.045000 0.308256 0
27.050000 0.279266 0
27.055000 0.247284 0
27.060000 0.213239 0
27.065000 0.178062 0
27.070000 0.142643 0
27.075000 0.107795 0
27.080000 0.074226 0
27.085000 0.042521 0
27.090000 0.013131 0
27.095000 -0.013628 0
27.100000 -0.037572 0
27.105000 -0.058634 0
27.110000 -0.076850 0
27.115000 -0.092336 0
27.120000 -0.105276 0
27.125000 -0.115892 0
27.130000 -0.124437 0
27.135000 -0.131170 0
27.140000 -0.136349 0
27.145000 -0.140218 0
27.150000 -0.143004 0
27.155000 -0.142560 0
27.160000 -0.141570 0
27.165000 -0.140584 0
27.170000 -0.139603 0
27.175000 -0.138625 0
27.180000 -0.137647 0
27.185000 -0.136667 0
27.190000 -0.135677 0
27.195000 -0.134662 0
27.200000 -0.133599 0
27.205000 -0.132445 0
27.210000 -0.131133 0
27.215000 -0.129554 0
27.220000 -0.127547 0
27.225000 -0.124876 0
27.230000 -0.121220 0
27.235000 -0.116157 0
27.240000 -0.109168 0
27.245000 -0.099661 0
27.250000 -0.087012 0
27.255000 -0.070642 0
27.260000 -0.050126 0
27.265000 -0.025305 0
27.270000 0.003582 0
27.275000 0.035809 0
27.280000 0.070114 0
27.285000 0.104733 0
27.290000 0.137515 0
27.295000 0.166137 0
27.300000 0.188363 0
27.305000 0.202332 0
27.310000 0.206821 1
27.315000 0.201415 0
27.320000 0.186575 0
27.325000 0.163573 0
27.330000 0.134307 0
27.335000 0.101023 0
27.340000 0.065948 0
27.345000 0.030745 0
27.350000 -0.004329 0
27.355000 -0.041487 0
27.360000 -0.085659 0
27.365000 -0.141843 0
27.370000 -0.208426 0
27.375000 -0.269932 0
27.380000 -0.296057 2
27.385000 -0.249466 0
27.390000 -0.097348 0
27.395000 0.174783 0
27.400000 0.540865 0
27.405000 0.912621 0
27.410000 1.155373 0
27.415000 1.159956 3
27.420000 0.919572 0
27.425000 0.534214 0
27.430000 0.139506 0
27.435000 -0.165553 0
27.440000 -0.340219 0
27.445000 -0.388110 4
27.450000 -0.341119 0
27.455000 -0.245818 0
27.460000 -0.145451 0
27.465000 -0.064481 0
27.470000 -0.006678 0
27.475000 0.035423 0
27.480000 0.070443 0
27.485000 0.103691 0
27.490000 0.137250 0
27.495000 0.171392 0
27.500000 0.205636 0
27.505000 0.239215 0
27.510000 0.271256 0
27.515000 0.300851 0
27.520000 0.327103 0
27.525000 0.349170 0
27.530000 0.366314 0
27.535000 0.377938 0
27.540000 0.383618 5
27.545000 0.383133 0
27.550000 0.376472 0
27.555000 0.363841 0
27.560000 0.345649 0
27.565000 0.322487 0
27.570000 0.295091 0
27.575000 0.264310 0
27.580000 0.231055 0
27.585000 0.196259 0
27.590000 0.160831 0
27.595000 0.125620 0
27.600000 0.091381 0
27.605000 0.058756 0
27.610000 0.028254 0
27.615000 0.000252 0
27.620000 -0.025009 0
27.625000 -0.047409 0
27.630000 -0.066939 0
27.635000 -0.083681 0
27.640000 -0.097790 0
27.645000 -0.109471 0
27.650000 -0.118964 0
27.655000 -0.126525 0
27.660000 -0.132415 0
27.665000 -0.136884 0
27.670000 -0.140167 0
27.675000 -0.141996 0
27.680000 -0.141009 0
27.685000 -0.140026 0
27.690000 -0.139048 0
27.695000 -0.138074 0
27.700000 -0.137101 0
27.705000 -0.136129 0
27.710000 -0.135149 0
27.715000 -0.134154 0
27.720000 -0.133124 0
27.725000 -0.132026 0
27.730000 -0.130809 0
27.735000 -0.129384 0
27.740000 -0.127621 0
27.745000 -0.125322 0
27.750000 -0.122213 0
27.755000 -0.117924 0
27.760000 -0.111986 0
27.765000 -0.103842 0
27.770000 -0.092877 0
27.775000 -0.078482 0
27.780000 -0.060139 0
27.785000 -0.037539 0
27.790000 -0.010701 0
27.795000 0.019912 0
27.800000 0.053321 0
27.805000 0.088018 0
27.810000 0.122040 0
27.815000 0.153132 0
27.820000 0.178984 0
27.825000 0.197509 0
27.830000 0.207126 1
27.835000 0.206976 0
27.840000 0.197055 0
27.845000 0.178215 0
27.850000 0.152042 0
27.855000 0.120629 0
27.860000 0.086258 0
27.865000 0.050973 0
27.870000 0.015916 0
27.875000 -0.019656 0
27.880000 -0.059268 0
27.885000 -0.108445 0
27.890000 -0.170202 0
27.895000 -0.237406 0
27.900000 -0.287567 2
27.905000 -0.286023 0
27.910000 -0.196107 0
27.915000 0.008873 0
27.920000 0.328832 0
27.925000 0.712045 0
27.930000 1.044806 0
27.935000 1.192880 3
27.940000 1.085006 0
27.945000 0.765270 0
27.950000 0.360138 0
27.955000 -0.003979 0
27.960000 -0.253675 0
27.965000 -0.369979 0
27.970000 -0.370674 4
27.975000 -0.296199 0
27.980000 -0.194206 0
27.985000 -0.100917 0
27.990000 -0.030898 0
27.995000 0.018602 0
28.000000 0.056558 0
28.005000 0.090313 0
28.010000 0.123563 0
28.015000 0.157396 0
28.020000 0.191647 0
28.025000 0.225664 0
28.030000 0.258618 0
28.035000 0.289609 0
28.040000 0.317723 0
28.045000 0.342083 0
28.050000 0.361887 0
28.055000 0.376455 0
28.060000 0.385267 0
28.065000 0.387993 5
28.070000 0.384510 0
28.075000 0.374913 0
28.080000 0.359509 0
28.085000 0.338800 0
28.090000 0.313454 0
28.095000 0.284271 0
28.100000 0.252138 0
28.105000 0.217987 0
28.110000 0.182748 0
28.115000 0.147307 0
28.120000 0.112472 0
28.125000 0.078948 0
28.130000 0.047314 0
28.135000 0.018013 0
28.140000 -0.008645 0
28.145000 -0.032482 0
28.150000 -0.053435 0
28.155000 -0.071545 0
28.160000 -0.086934 0
28.165000 -0.099784 0
28.170000 -0.110324 0
28.175000 -0.118804 0
28.180000 -0.125484 0
28.185000 -0.130622 0
28.190000 -0.134463 0
28.195000 -0.137229 0
28.200000 -0.136807 0
28.205000 -0.135846 0
28.210000 -0.134889 0
28.215000 -0.133936 0
28.220000 -0.132985 0
28.225000 -0.132036 0
28.230000 -0.131083 0
28.235000 -0.130120 0
28.240000 -0.129131 0
28.245000 -0.128091 0
28.250000 -0.126958 0
28.255000 -0.125663 0
28.260000 -0.124093 0
28.265000 -0.122085 0
28.270000 -0.119399 0
28.275000 -0.115707 0
28.280000 -0.110584 0
28.285000 -0.103505 0
28.290000 -0.093875 0
28.295000 -0.081070 0
28.300000 -0.064517 0
28.305000 -0.043801 0
28.310000 -0.018781 0
28.315000 0.010281 0
28.320000 0.042630 0
28.325000 0.076975 0
28.330000 0.111527 0
28.335000 0.144122 0
28.340000 0.172430 0
28.345000 0.194229 0
28.350000 0.207688 0
28.355000 0.211619 1
28.360000 0.205658 0
28.365000 0.190311 0
28.370000 0.166890 0
28.375000 0.137321 0
28.380000 0.103860 0
